Index,Amplitude (0-4096)
0,1664
1,2096
2,2593
3,3034
4,3216
5,3021
6,2707
7,239
8,2018
9,1734
10,1481
11,1277
12,1092
13,976
14,895
15,857
16,885
17,928
18,988
19,105
20,1072
21,1082
22,1082
23,1066
24,1045
25,104
26,104
27,105
28,1083
29,1088
30,113
31,1141
32,1181
33,1225
34,1247
35,1296
36,1313
37,1337
38,136
39,1394
40,1482
41,169
42,2164
43,2686
44,3056
45,319
46,3021
47,2718
48,2382
49,2032
50,1742
51,1497
52,1289
53,1118
54,1
55,902
56,874
57,848
58,896
59,944
60,993
61,1023
62,1037
63,104
64,1035
65,996
66,1011
67,101
68,1023
69,1052
70,1073
71,1098
72,1139
73,1158
74,1201
75,1232
76,1264
77,1307
78,1322
79,1343
80,1373
81,1453
82,1593
83,1969
84,25
85,2927
86,3142
87,3018
88,2743
89,2407
90,2102
91,1779
92,1533
93,1312
94,1156
95,1015
96,913
97,874
98,883
99,922
100,967
101,1021
102,1067
103,1095
104,1077
105,1061
106,1046
107,1061
108,105
109,1051
110,1063
111,1095
112,1103
113,1141
114,1184
115,1211
116,1236
117,1248
118,1291
119,1321
120,1354
121,1409
122,1559
123,1907
124,2438
125,2853
126,3094
127,298
128,2706
129,2393
130,2047
131,1746
132,1488
133,1283
134,109
135,969
136,88
137,842
138,845
139,911
140,965
141,1017
142,1051
143,1065
144,1049
145,1043
146,101
147,1021
148,1007
149,1033
150,104
151,1065
152,1086
153,1123
154,1146
155,1184
156,122
157,1262
158,1279
159,1283
160,1325
161,1363
162,1456
163,1726
164,2253
165,2783
166,3117
167,3161
168,2948
169,2631
170,2283
171,1942
172,165
173,1408
174,1227
175,1062
176,942
177,87
178,852
179,912
180,1009
181,1134
182,1199
183,1214
184,1177
185,1123
186,1073
187,1006
188,97
189,96
190,983
191,995
192,1023
193,1072
194,1095
195,1093
196,1087
197,1098
198,1085
199,1083
200,109
201,115
202,1181
203,1308
204,1719
205,2411
206,3147
207,3792
208,395
209,3567
210,3025
211,2559
212,2177
213,1783
214,1458
215,117
216,912
217,713
218,562
219,461
220,433
221,406
222,437
223,482
224,507
225,56
226,598
227,623
228,619
229,639
230,674
231,715
232,757
233,803
234,835
235,879
236,944
237,999
238,1062
239,1098
240,1167
241,1193
242,1234
243,1298
244,1391
245,1655
246,2159
247,2694
248,3033
249,3178
250,2925
251,2628
252,2272
253,1922
254,1657
255,1395
256,1213
257,978
258,906
259,831
260,822
261,851
262,91
263,976
264,1057
265,1066
266,1079
267,1042
268,1022
269,987
270,976
271,961
272,957
273,964
274,987
275,1013
276,106
277,1082
278,1116
279,1136
280,1184
281,1242
282,1408
283,1796
284,2365
285,2867
286,3152
287,3099
288,2832
289,249
290,2158
291,1825
292,1558
293,1302
294,1113
295,958
296,816
297,757
298,738
299,774
300,806
301,848
302,907
303,895
304,917
305,885
306,864
307,816
308,848
309,832
310,867
311,886
312,926
313,947
314,992
315,105
316,1061
317,1092
318,1138
319,1163
320,1223
321,1393
322,1754
323,2289
324,2751
325,3034
326,301
327,2768
328,248
329,2151
330,1839
331,1579
332,1361
333,1172
334,1015
335,919
336,832
337,801
338,833
339,877
340,917
341,957
342,965
343,966
344,937
345,913
346,893
347,859
348,88
349,848
350,885
351,936
352,957
353,989
354,1001
355,1057
356,1079
357,1104
358,1125
359,1199
360,1358
361,1694
362,2138
363,2508
364,2688
365,2629
366,2439
367,2206
368,1929
369,1665
370,1463
371,1281
372,1135
373,1008
374,94
375,904
376,899
377,953
378,1003
379,104
380,1062
381,1054
382,1017
383,1003
384,981
385,943
386,94
387,933
388,934
389,959
390,961
391,1008
392,1018
393,104
394,1072
395,1115
396,1133
397,1163
398,1175
399,1221
400,1359
401,1712
402,2128
403,2494
404,2683
405,2672
406,2493
407,2265
408,2
409,1776
410,1565
411,1387
412,1232
413,1113
414,1003
415,939
416,923
417,945
418,951
419,997
420,1011
421,1049
422,1011
423,997
424,961
425,943
426,932
427,929
428,919
429,93
430,953
431,967
432,1014
433,1019
434,105
435,1082
436,1104
437,1135
438,1162
439,1237
440,1396
441,174
442,2159
443,2448
444,2586
445,2494
446,2297
447,2076
448,1831
449,1585
450,1401
451,1249
452,1126
453,995
454,978
455,936
456,951
457,997
458,1088
459,1119
460,1133
461,1135
462,1078
463,1047
464,1012
465,989
466,972
467,965
468,96
469,97
470,991
471,992
472,1023
473,1063
474,1103
475,1111
476,1114
477,1151
478,1216
479,1395
480,1744
481,2185
482,2533
483,2693
484,2645
485,2477
486,2208
487,1946
488,169
489,1482
490,1308
491,1153
492,1041
493,963
494,894
495,906
496,926
497,951
498,979
499,1014
500,1009
501,976
502,942
503,925
504,906
505,858
506,877
507,881
508,919
509,924
510,926
511,976
512,1023
513,1039
514,1072
515,1093
516,1122
517,1143
518,1172
519,1218
520,1356
521,1666
522,2124
523,2581
524,2847
525,2862
526,2683
527,2427
528,2129
529,1831
530,1596
531,1383
532,1215
533,1085
534,976
535,9
536,847
537,865
538,892
539,912
540,95
541,967
542,944
543,926
544,891
545,864
546,847
547,834
548,834
549,876
550,855
551,887
552,891
553,931
554,975
555,992
556,1071
557,1075
558,109
559,1118
560,1219
561,1471
562,1904
563,2403
564,28
565,2928
566,2811
567,2533
568,2224
569,1936
570,1645
571,1411
572,1215
573,104
574,916
575,847
576,816
577,835
578,891
579,926
580,97
581,1005
582,991
583,969
584,943
585,897
586,881
587,878
588,862
589,884
590,899
591,927
592,946
593,978
594,101
595,1043
596,1079
597,1109
598,1143
599,116
600,1233
601,1471
602,1904
603,2498
604,2957
605,3157
606,3039
607,2768
608,2415
609,2109
610,177
611,1506
612,1284
613,1109
614,946
615,848
616,791
617,755
618,791
619,827
620,869
621,895
622,917
623,896
624,879
625,848
626,83
627,815
628,809
629,831
630,854
631,864
632,895
633,916
634,958
635,1008
636,1039
637,1076
638,1103
639,1141
640,1173
641,1213
642,1346
643,171
644,2241
645,2771
646,3134
647,316
648,2887
649,2549
650,2193
651,186
652,1565
653,133
654,112
655,96
656,849
657,778
658,761
659,777
660,837
661,897
662,948
663,97
664,976
665,944
666,93
667,907
668,875
669,87
670,889
671,903
672,912
673,937
674,96
675,1003
676,1059
677,1072
678,1116
679,1143
680,1167
681,1209
682,1382
683,1746
684,2298
685,2806
686,3119
687,3051
688,2787
689,2443
690,2097
691,1765
692,1462
693,1226
694,104
695,894
696,797
697,752
698,773
699,805
700,879
701,922
702,976
703,971
704,989
705,958
706,933
707,902
708,894
709,863
710,895
711,943
712,925
713,976
714,1005
715,1021
716,1074
717,1104
718,1136
719,1153
720,1195
721,128
722,1508
723,1968
724,2583
725,3085
726,3331
727,3169
728,2827
729,2456
730,2097
731,1749
732,1471
733,1236
734,1073
735,907
736,797
737,749
738,721
739,766
740,82
741,861
742,896
743,918
744,913
745,903
746,885
747,848
748,864
749,859
750,866
751,88
752,896
753,944
754,963
755,1008
756,1041
757,1091
758,1104
759,1145
760,1225
761,1375
762,1796
763,2384
764,2954
765,3326
766,3265
767,2948
768,2559
769,219
770,1854
771,1559
772,1295
773,1113
774,927
775,802
776,758
777,734
778,763
779,815
780,881
781,917
782,934
783,944
784,912
785,903
786,85
787,849
788,848
789,861
790,875
791,883
792,911
793,955
794,983
795,1021
796,1068
797,1104
798,1145
799,1247
800,1603
801,2174
802,2768
803,3196
804,3253
805,3034
806,2663
807,2303
808,1917
809,1603
810,136
811,112
812,944
813,835
814,777
815,757
816,802
817,885
818,946
819,1009
820,102
821,1003
822,974
823,93
824,907
825,886
826,871
827,861
828,863
829,905
830,927
831,97
832,1009
833,1049
834,1075
835,1122
836,1228
837,1482
838,2032
839,2684
840,3269
841,3484
842,3285
843,2867
844,2469
845,2078
846,1744
847,1457
848,1219
849,1046
850,855
851,749
852,71
853,722
854,747
855,807
856,856
857,894
858,895
859,877
860,85
861,818
862,801
863,8
864,799
865,81
866,848
867,864
868,898
869,941
870,1008
871,1017
872,1041
873,1078
874,1131
875,1185
876,1329
877,1758
878,2402
879,309
880,3635
881,3675
882,3312
883,2839
884,2411
885,2023
886,1708
887,1409
888,1187
889,1002
890,849
891,752
892,718
893,713
894,758
895,827
896,853
897,875
898,871
899,843
900,852
901,8
902,782
903,774
904,787
905,811
906,832
907,873
908,895
909,944
910,976
911,1038
912,1072
913,1103
914,1143
915,1157
916,1233
917,1296
918,1554
919,2111
920,2794
921,3487
922,3775
923,3523
924,3041
925,2585
926,217
927,181
928,1499
929,1239
930,1045
931,882
932,787
933,729
934,75
935,792
936,874
937,949
938,979
939,986
940,975
941,925
942,911
943,866
944,845
945,838
946,851
947,869
948,907
949,923
950,962
951,1011
952,1056
953,1091
954,1123
955,1155
956,1228
957,1443
958,1954
959,2626
960,3263
961,3645
962,3481
963,3037
964,261
965,2199
966,1831
967,1507
968,125
969,1042
970,88
971,766
972,727
973,737
974,784
975,842
976,905
977,941
978,954
979,928
980,904
981,861
982,833
983,838
984,817
985,834
986,848
987,891
988,933
989,966
990,1021
991,106
992,1107
993,1134
994,1157
995,12
996,1225
997,1319
998,1583
999,2139
1000,2835
1001,3619
1002,3933
1003,3786
1004,3219
1005,2741
1006,2273
1007,1901
1008,1584
1009,1325
1010,1104
1011,911
1012,798
1013,724
1014,701
1015,71
1016,77
1017,831
1018,877
1019,893
1020,882
1021,85
1022,843
1023,826
1024,81
1025,813
1026,829
1027,835
1028,879
1029,914
1030,949
1031,1005
1032,1046
1033,1081
1034,1126
1035,1168
1036,1197
1037,1238
1038,1337
1039,1637
1040,2219
1041,2915
1042,3568
1043,3785
1044,3493
1045,3014
1046,2559
1047,2153
1048,1793
1049,15
1050,1249
1051,1021
1052,893
1053,774
1054,738
1055,731
1056,784
1057,85
1058,941
1059,958
1060,976
1061,966
1062,942
1063,911
1064,882
1065,88
1066,878
1067,88
1068,915
1069,958
1070,983
1071,104
1072,1067
1073,1104
1074,1153
1075,1193
1076,1219
1077,1258
1078,1359
1079,1618
1080,2146
1081,2801
1082,3391
1083,3632
1084,3389
1085,2927
1086,2503
1087,2096
1088,1739
1089,1446
1090,1205
1091,998
1092,861
1093,784
1094,746
1095,774
1096,826
1097,912
1098,989
1099,1014
1100,1023
1101,981
1102,981
1103,944
1104,902
1105,933
1106,938
1107,939
1108,991
1109,1016
1110,1058
1111,1072
1112,1114
1113,1165
1114,1217
1115,1232
1116,1264
1117,1299
1118,1341
1119,1478
1120,1872
1121,2486
1122,3165
1123,3706
1124,3742
1125,3386
1126,2896
1127,2461
1128,2055
1129,1714
1130,1434
1131,1203
1132,1034
1133,881
1134,784
1135,75
1136,755
1137,806
1138,866
1139,919
1140,965
1141,978
1142,944
1143,93
1144,908
1145,909
1146,907
1147,933
1148,939
1149,944
1150,992
1151,1039
1152,107
1153,1114
1154,1142
1155,12
1156,1233
1157,1231
1158,1274
1159,1326
1160,1444
1161,1808
1162,2403
1163,3014
1164,3583
1165,3664
1166,3281
1167,2862
1168,2441
1169,2047
1170,1717
1171,1447
1172,1213
1173,1041
1174,878
1175,807
1176,762
1177,79
1178,835
1179,902
1180,959
1181,995
1182,998
1183,998
1184,971
1185,974
1186,965
1187,949
1188,96
1189,99
1190,995
1191,1051
1192,1069
1193,1109
1194,1143
1195,1196
1196,1245
1197,1263
1198,1297
1199,1318
1200,1358
1201,145
1202,1648
1203,2126
1204,2763
1205,3264
1206,3486
1207,3243
1208,2864
1209,2468
1210,2101
1211,1776
1212,1478
1213,1296
1214,1101
1215,96
1216,895
1217,854
1218,895
1219,951
1220,1011
1221,1078
1222,1109
1223,1133
1224,1127
1225,1092
1226,1054
1227,1067
1228,1047
1229,1038
1230,1065
1231,1087
1232,11
1233,1146
1234,1174
1235,1215
1236,1231
1237,1259
1238,1296
1239,1317
1240,1365
1241,1461
1242,1738
1243,2279
1244,2893
1245,3362
1246,3486
1247,3216
1248,282
1249,2426
1250,2068
1251,1755
1252,1483
1253,1267
1254,1088
1255,961
1256,871
1257,839
1258,854
1259,902
1260,958
1261,1023
1262,1045
1263,1071
1264,1042
1265,1021
1266,1009
1267,989
1268,991
1269,1023
1270,1021
1271,1055
1272,1095
1273,1111
1274,1156
1275,1214
1276,1226
1277,1274
1278,1291
1279,1332
1280,1363
1281,1397
1282,1528
1283,1906
1284,2475
1285,3049
1286,3472
1287,3485
1288,3141
1289,2722
1290,2359
1291,1999
1292,1695
1293,1441
1294,1235
1295,1071
1296,935
1297,866
1298,853
1299,859
1300,907
1301,979
1302,1021
1303,104
1304,1067
1305,104
1306,1017
1307,1038
1308,1008
1309,1007
1310,1019
1311,104
1312,1039
1313,1088
1314,1131
1315,115
1316,1193
1317,1227
1318,1269
1319,1312
1320,1326
1321,1353
1322,1383
1323,1507
1324,1787
1325,2333
1326,2935
1327,3365
1328,345
1329,3187
1330,2765
1331,2383
1332,2026
1333,1722
1334,1458
1335,1259
1336,11
1337,978
1338,913
1339,906
1340,935
1341,998
1342,1074
1343,1121
1344,1135
1345,1149
1346,1107
1347,1089
1348,1066
1349,1062
1350,1023
1351,1047
1352,1071
1353,111
1354,1115
1355,1149
1356,1186
1357,1214
1358,1267
1359,1286
1360,1309
1361,1335
1362,1359
1363,1454
1364,1723
1365,2247
1366,2821
1367,3279
1368,3443
1369,3235
1370,2843
1371,2469
1372,2119
1373,179
1374,1554
1375,1319
1376,1153
1377,1008
1378,938
1379,889
1380,91
1381,96
1382,1022
1383,1086
1384,1085
1385,1117
1386,1088
1387,1054
1388,1054
1389,104
1390,104
1391,1031
1392,1067
1393,1082
1394,1114
1395,1136
1396,1169
1397,1201
1398,1217
1399,1275
1400,1307
1401,1321
1402,1356
1403,1424
1404,146
1405,1738
1406,225
1407,2842
1408,3428
1409,3517
1410,3295
1411,291
1412,2534
1413,2201
1414,1863
1415,1596
1416,1365
1417,1215
1418,1034
1419,965
1420,911
1421,906
1422,944
1423,991
1424,1054
1425,1088
1426,111
1427,107
1428,1045
1429,1054
1430,1015
1431,101
1432,1045
1433,1049
1434,1058
1435,1088
1436,1126
1437,1141
1438,1187
1439,1232
1440,1244
1441,1295
1442,1329
1443,1345
1444,1392
1445,1419
1446,1519
1447,1799
1448,2282
1449,2855
1450,3341
1451,3437
1452,3179
1453,2779
1454,2407
1455,2105
1456,1748
1457,1502
1458,1311
1459,1136
1460,1011
1461,95
1462,958
1463,957
1464,1018
1465,1098
1466,1147
1467,1154
1468,1141
1469,1155
1470,1116
1471,1089
1472,1079
1473,1048
1474,1055
1475,1094
1476,1087
1477,1114
1478,1161
1479,1199
1480,1235
1481,1253
1482,1289
1483,1314
1484,1343
1485,136
1486,1418
1487,1532
1488,1813
1489,2337
1490,2902
1491,3346
1492,3441
1493,3175
1494,2814
1495,2448
1496,2109
1497,1787
1498,1565
1499,1339
1500,1158
1501,1035
1502,94
1503,915
1504,907
1505,958
1506,1023
1507,1078
1508,1121
1509,1117
1510,1095
1511,1057
1512,1036
1513,1049
1514,104
1515,1055
1516,1053
1517,1101
1518,1114
1519,1147
1520,1193
1521,1209
1522,1255
1523,1283
1524,1301
1525,1326
1526,1365
1527,1408
1528,1423
1529,1535
1530,1808
1531,2293
1532,2864
1533,3345
1534,3472
1535,3277
1536,2842
1537,2501
1538,213
1539,1834
1540,159
1541,1379
1542,1204
1543,1073
1544,966
1545,891
1546,895
1547,926
1548,983
1549,1047
1550,1091
1551,1106
1552,1061
1553,1074
1554,1055
1555,1039
1556,1046
1557,1079
1558,1054
1559,1086
1560,1136
1561,1121
1562,1163
1563,1207
1564,1235
1565,128
1566,1315
1567,1334
1568,1361
1569,1411
1570,1409
1571,145
1572,1531
1573,1717
1574,2128
1575,2722
1576,3184
1577,3375
1578,321
1579,2883
1580,2501
1581,216
1582,185
1583,1585
1584,1392
1585,12
1586,1089
1587,967
1588,956
1589,944
1590,101
1591,1075
1592,1121
1593,1161
1594,1165
1595,1149
1596,1122
1597,1092
1598,1079
1599,1081
1600,1085
1601,1097
1602,1107
1603,1152
1604,1179
1605,1215
1606,1255
1607,1264
1608,1298
1609,1351
1610,1363
1611,1386
1612,1408
1613,1488
1614,1654
1615,2122
1616,2667
1617,3109
1618,3238
1619,3071
1620,2743
1621,2417
1622,2092
1623,1776
1624,152
1625,1328
1626,1174
1627,1046
1628,976
1629,954
1630,975
1631,1033
1632,1107
1633,1162
1634,1179
1635,1167
1636,1168
1637,1125
1638,1104
1639,1094
1640,1085
1641,1083
1642,1118
1643,1133
1644,1168
1645,1187
1646,1215
1647,1241
1648,1282
1649,1317
1650,1335
1651,1361
1652,1369
1653,1425
1654,1535
1655,1839
1656,2375
1657,2896
1658,3307
1659,3381
1660,3125
1661,2751
1662,2399
1663,2036
1664,1761
1665,1507
1666,1316
1667,1149
1668,1039
1669,951
1670,923
1671,88
1672,913
1673,923
1674,989
1675,1007
1676,1034
1677,1069
1678,1023
1679,104
1680,1015
1681,101
1682,1023
1683,104
1684,1069
1685,1094
1686,1134
1687,1166
1688,1197
1689,1237
1690,1282
1691,1331
1692,1378
1693,1444
1694,1535
1695,1835
1696,2386
1697,3137
1698,3981
1699,4095
1700,3959
1701,331
1702,2674
1703,219
1704,1718
1705,1328
1706,104
1707,798
1708,656
1709,576
1710,543
1711,57
1712,657
1713,816
1714,938
1715,1015
1716,1076
1717,1071
1718,2
1719,945
1720,935
1721,912
1722,919
1723,933
1724,954
1725,978
1726,994
1727,1041
1728,1073
1729,1125
1730,1174
1731,1232
1732,1276
1733,1313
1734,135
1735,1374
1736,1447
1737,1648
1738,2094
1739,264
1740,3071
1741,3278
1742,3091
1743,2771
1744,2415
1745,2078
1746,1771
1747,152
1748,1328
1749,1141
1750,1015
1751,925
1752,88
1753,901
1754,961
1755,1049
1756,1135
1757,1203
1758,1229
1759,1198
1760,1164
1761,1131
1762,891
1763,825
1764,784
1765,807
1766,849
1767,897
1768,948
1769,964
1770,949
1771,926
1772,897
1773,891
1774,869
1775,883
1776,883
1777,899
1778,917
1779,981
1780,979
1781,1051
1782,1078
1783,1109
1784,1143
1785,1196
1786,1219
1787,1248
1788,1289
1789,1365
1790,1626
1791,2122
1792,2739
1793,3312
1794,3541
1795,3363
1796,2974
1797,2595
1798,2236
1799,1891
1800,1615
1801,1395
1802,1207
1803,1018
1804,897
1805,834
1806,803
1807,818
1808,862
1809,913
1810,951
1811,969
1812,952
1813,94
1814,924
1815,889
1816,888
1817,88
1818,892
1819,939
1820,939
1821,959
1822,1008
1823,104
1824,1071
1825,113
1826,1147
1827,1185
1828,1246
1829,1265
1830,1295
1831,1322
1832,1362
1833,1422
1834,152
1835,185
1836,2416
1837,2992
1838,343
1839,3458
1840,3127
1841,2732
1842,2346
1843,1998
1844,1682
1845,1424
1846,1219
1847,1067
1848,933
1849,863
1850,862
1851,907
1852,962
1853,1062
1854,1113
1855,1125
1856,1143
1857,1078
1858,1041
1859,1009
1860,1001
1861,983
1862,992
1863,979
1864,1003
1865,1041
1866,1071
1867,1102
1868,1136
1869,1177
1870,1196
1871,1231
1872,1267
1873,1277
1874,1306
1875,1337
1876,1438
1877,1633
1878,2102
1879,2688
1880,3239
1881,3441
1882,3262
1883,289
1884,251
1885,2156
1886,1826
1887,1577
1888,1355
1889,1156
1890,1007
1891,921
1892,87
1893,858
1894,909
1895,953
1896,1018
1897,104
1898,1041
1899,1018
1900,987
1901,975
1902,944
1903,939
1904,943
1905,955
1906,977
1907,1005
1908,1059
1909,1078
1910,1104
1911,1137
1912,1166
1913,1211
1914,1243
1915,1254
1916,128
1917,1328
1918,1343
1919,137
1920,1399
1921,1523
1922,189
1923,2464
1924,3056
1925,3563
1926,36
1927,328
1928,2843
1929,2447
1930,2079
1931,1753
1932,1491
1933,1266
1934,1089
1935,951
1936,875
1937,835
1938,825
1939,876
1940,937
1941,1005
1942,1071
1943,1066
1944,1043
1945,1019
1946,986
1947,954
1948,947
1949,962
1950,975
1951,979
1952,1008
1953,1058
1954,107
1955,1108
1956,1132
1957,1169
1958,1216
1959,1264
1960,126
1961,1328
1962,1338
1963,1351
1964,1389
1965,1444
1966,1584
1967,1915
1968,2482
1969,3002
1970,3377
1971,3354
1972,3009
1973,2659
1974,2301
1975,1978
1976,1683
1977,143
1978,1251
1979,1088
1980,974
1981,912
1982,887
1983,922
1984,965
1985,1059
1986,1098
1987,1119
1988,1135
1989,1101
1990,1063
1991,1039
1992,102
1993,1009
1994,1006
1995,104
1996,1041
1997,107
1998,111
1999,1136
2000,1163
2001,119
2002,1232
2003,1264
2004,1298
2005,1328
2006,1346
2007,1374
2008,1409
2009,1525
2010,1778
2011,2269
2012,2801
2013,3152
2014,3189
2015,2958
2016,2613
2017,2275
2018,1936
2019,1657
2020,1424
2021,1238
2022,1102
2023,99
2024,935
2025,926
2026,97
2027,1037
2028,1095
2029,1147
2030,1159
2031,1167
2032,1136
2033,1111
2034,1083
2035,1072
2036,1051
2037,1071
2038,1074
2039,1094
2040,1136
2041,1162
2042,1202
2043,121
2044,1232
2045,1282
2046,1296
2047,1327
2048,135
2049,1364
2050,1402
2051,1484
2052,1745
2053,2251
2054,2809
2055,3264
2056,3389
2057,3165
2058,2807
2059,245
2060,2108
2061,1803
2062,1521
2063,1334
2064,1154
2065,1015
2066,922
2067,891
2068,88
2069,912
2070,961
2071,1045
2072,1069
2073,1104
2074,1088
2075,1072
2076,1033
2077,1001
2078,995
2079,1002
2080,1007
2081,1018
2082,1055
2083,1088
2084,1125
2085,1141
2086,1169
2087,1214
2088,126
2089,128
2090,1316
2091,1341
2092,1363
2093,141
2094,1453
2095,1648
2096,2071
2097,2609
2098,3088
2099,3319
2100,3198
2101,2865
2102,2516
2103,2175
2104,1857
2105,1595
2106,1381
2107,1219
2108,1088
2109,976
2110,912
2111,896
2112,93
2113,973
2114,1061
2115,1091
2116,111
2117,1104
2118,1072
2119,1063
2120,1045
2121,101
2122,1023
2123,1022
2124,1052
2125,1071
2126,1103
2127,1122
2128,1162
2129,1191
2130,1218
2131,1241
2132,1279
2133,1309
2134,1342
2135,1372
2136,1392
2137,1434
2138,1472
2139,1615
2140,1949
2141,2498
2142,2959
2143,32
2144,3141
2145,2832
2146,2508
2147,2153
2148,1844
2149,1585
2150,1367
2151,1203
2152,1088
2153,983
2154,949
2155,964
2156,995
2157,1088
2158,1165
2159,1194
2160,12
2161,12
2162,1168
2163,1137
2164,1105
2165,1086
2166,107
2167,1085
2168,1101
2169,1118
2170,114
2171,1168
2172,1197
2173,1225
2174,126
2175,1287
2176,1326
2177,1334
2178,136
2179,1399
2180,1511
2181,1703
2182,2143
2183,2693
2184,3131
2185,3283
2186,3071
2187,2757
2188,2407
2189,2075
2190,1776
2191,152
2192,1337
2193,1162
2194,1045
2195,957
2196,921
2197,911
2198,935
2199,998
2200,1072
2201,1101
2202,1103
2203,1108
2204,1081
2205,1046
2206,1045
2207,1023
2208,1023
2209,1041
2210,1061
2211,1088
2212,1133
2213,1166
2214,1191
2215,1226
2216,1242
2217,1282
2218,1312
2219,1331
2220,1366
2221,1376
2222,1421
2223,1531
2224,1821
2225,2347
2226,2884
2227,3276
2228,3331
2229,3067
2230,2697
2231,2339
2232,2013
2233,1728
2234,1479
2235,1296
2236,1161
2237,1021
2238,955
2239,912
2240,912
2241,952
2242,999
2243,1055
2244,1095
2245,1108
2246,1088
2247,1068
2248,105
2249,1034
2250,1019
2251,1023
2252,1046
2253,1059
2254,1088
2255,1121
2256,1147
2257,1171
2258,1223
2259,1245
2260,128
2261,131
2262,1342
2263,1363
2264,1383
2265,1413
2266,1522
2267,1759
2268,2236
2269,2782
2270,3214
2271,3314
2272,3071
2273,2722
2274,2368
2275,2032
2276,1734
2277,1488
2278,1295
2279,1141
2280,1046
2281,95
2282,925
2283,946
2284,994
2285,1058
2286,1117
2287,1134
2288,1175
2289,1148
2290,1121
2291,1094
2292,1041
2293,1053
2294,1069
2295,1065
2296,1086
2297,1121
2298,1137
2299,1169
2300,1199
2301,1253
2302,1264
2303,1291
2304,1321
2305,1337
2306,1357
2307,139
2308,1461
2309,1662
2310,2106
2311,2649
2312,311
2313,3325
2314,3152
2315,2803
2316,2458
2317,2121
2318,1805
2319,1563
2320,1355
2321,1179
2322,1047
2323,954
2324,908
2325,915
2326,961
2327,102
2328,1079
2329,1131
2330,1121
2331,1104
2332,1082
2333,1053
2334,1023
2335,1033
2336,1021
2337,104
2338,1067
2339,1077
2340,1104
2341,1137
2342,1137
2343,1209
2344,1239
2345,1261
2346,1289
2347,1309
2348,1295
2349,1369
2350,1402
2351,1534
2352,184
2353,237
2354,2925
2355,3325
2356,3347
2357,3103
2358,2718
2359,2365
2360,2021
2361,1744
2362,1509
2363,131
2364,1141
2365,1008
2366,933
2367,9
2368,912
2369,937
2370,998
2371,1044
2372,1072
2373,1076
2374,1071
2375,1038
2376,1007
2377,989
2378,99
2379,992
2380,997
2381,1019
2382,1051
2383,1095
2384,1106
2385,1136
2386,1168
2387,1213
2388,1243
2389,1271
2390,1309
2391,1344
2392,1361
2393,1451
2394,1707
2395,2173
2396,2699
2397,3177
2398,3316
2399,3125
2400,2743
2401,2416
2402,2068
2403,1758
2404,1516
2405,1312
2406,1137
2407,1015
2408,936
2409,909
2410,926
2411,972
2412,107
2413,1111
2414,1146
2415,1155
2416,1114
2417,1098
2418,1038
2419,1034
2420,991
2421,999
2422,1008
2423,1023
2424,1067
2425,1087
2426,1107
2427,1164
2428,1182
2429,1218
2430,1243
2431,1267
2432,1294
2433,134
2434,1466
2435,1823
2436,2386
2437,2943
2438,3334
2439,3371
2440,304
2441,2681
2442,2319
2443,1977
2444,169
2445,1456
2446,1263
2447,1079
2448,974
2449,907
2450,862
2451,879
2452,911
2453,991
2454,1052
2455,1065
2456,1053
2457,1023
2458,976
2459,977
2460,958
2461,944
2462,951
2463,97
2464,986
2465,1023
2466,1051
2467,1099
2468,1134
2469,1151
2470,12
2471,1234
2472,1251
2473,1279
2474,1321
2475,1359
2476,1466
2477,1772
2478,2304
2479,2909
2480,3408
2481,3509
2482,3266
2483,2866
2484,2482
2485,2123
2486,1803
2487,153
2488,1321
2489,1149
2490,992
2491,887
2492,837
2493,862
2494,88
2495,897
2496,989
2497,1035
2498,1041
2499,1023
2500,986
2501,962
2502,887
2503,93
2504,939
2505,964
2506,979
2507,992
2508,101
2509,1059
2510,1088
2511,1127
2512,1174
2513,12
2514,1247
2515,1274
2516,1314
2517,1328
2518,136
2519,1456
2520,176
2521,2295
2522,2863
2523,3334
2524,3457
2525,3155
2526,2798
2527,241
2528,2042
2529,1742
2530,1461
2531,1259
2532,1087
2533,962
2534,879
2535,845
2536,88
2537,929
2538,1023
2539,1091
2540,1119
2541,1126
2542,1104
2543,1061
2544,1011
2545,997
2546,1008
2547,974
2548,1008
2549,1018
2550,1056
2551,1095
2552,1117
2553,1147
2554,1184
2555,1238
2556,1274
2557,1283
2558,1299
2559,1328
2560,1406
2561,1609
2562,2077
2563,2659
2564,3125
2565,3339
2566,3194
2567,2832
2568,2451
2569,2086
2570,1776
2571,1487
2572,1264
2573,1099
2574,974
2575,879
2576,88
2577,881
2578,942
2579,1017
2580,1091
2581,1107
2582,1124
2583,1102
2584,1059
2585,1023
2586,1008
2587,1009
2588,1023
2589,104
2590,104
2591,1082
2592,1104
2593,112
2594,1169
2595,1185
2596,1231
2597,1264
2598,1311
2599,1315
2600,1337
2601,1407
2602,157
2603,1957
2604,2551
2605,3168
2606,3522
2607,3443
2608,3071
2609,2698
2610,2297
2611,1969
2612,1646
2613,1425
2614,1231
2615,1054
2616,958
2617,858
2618,816
2619,851
2620,893
2621,968
2622,961
2623,1008
2624,1008
2625,1013
2626,976
2627,959
2628,944
2629,951
2630,96
2631,982
2632,998
2633,1022
2634,1071
2635,1095
2636,1116
2637,1167
2638,1196
2639,123
2640,1264
2641,1294
2642,1337
2643,1357
2644,1401
2645,1484
2646,1776
2647,2323
2648,2907
2649,3408
2650,3511
2651,3263
2652,282
2653,2462
2654,2105
2655,1774
2656,1511
2657,1293
2658,1114
2659,99
2660,883
2661,837
2662,845
2663,88
2664,927
2665,978
2666,1035
2667,1055
2668,1037
2669,101
2670,1007
2671,99
2672,976
2673,982
2674,993
2675,1005
2676,104
2677,1083
2678,1105
2679,1134
2680,1174
2681,121
2682,1235
2683,1267
2684,1306
2685,1331
2686,1355
2687,1374
2688,1428
2689,1553
2690,1865
2691,2401
2692,2955
2693,3344
2694,3379
2695,3047
2696,2693
2697,2311
2698,1968
2699,1682
2700,1421
2701,1236
2702,1087
2703,951
2704,891
2705,871
2706,88
2707,955
2708,1033
2709,1072
2710,1116
2711,1109
2712,1101
2713,1072
2714,105
2715,1037
2716,102
2717,1036
2718,1045
2719,1065
2720,1102
2721,1126
2722,1159
2723,1199
2724,1234
2725,1259
2726,1296
2727,1328
2728,1362
2729,1367
2730,142
2731,1533
2732,1837
2733,2359
2734,288
2735,3233
2736,319
2737,2906
2738,2559
2739,2218
2740,1888
2741,1611
2742,1389
2743,1199
2744,1059
2745,951
2746,907
2747,88
2748,934
2749,993
2750,1071
2751,113
2752,1142
2753,1139
2754,1119
2755,1102
2756,1088
2757,1072
2758,1067
2759,1088
2760,1097
2761,1122
2762,1141
2763,1173
2764,12
2765,1228
2766,1281
2767,1289
2768,1321
2769,1345
2770,1386
2771,1395
2772,1456
2773,1642
2774,2002
2775,2585
2776,3093
2777,3367
2778,323
2779,2903
2780,2551
2781,2198
2782,1879
2783,1617
2784,1379
2785,1201
2786,1075
2787,962
2788,906
2789,882
2790,907
2791,944
2792,1032
2793,1074
2794,11
2795,1089
2796,1082
2797,1053
2798,105
2799,1023
2800,1023
2801,1042
2802,1062
2803,1082
2804,1112
2805,1156
2806,1186
2807,1215
2808,125
2809,1276
2810,1309
2811,1338
2812,136
2813,1392
2814,1425
2815,1525
2816,1811
2817,2338
2818,2878
2819,3251
2820,331
2821,3057
2822,2704
2823,2333
2824,2
2825,1713
2826,1472
2827,1279
2828,1125
2829,997
2830,926
2831,893
2832,907
2833,944
2834,1008
2835,107
2836,1101
2837,1109
2838,1101
2839,1085
2840,1065
2841,1035
2842,1047
2843,1042
2844,1081
2845,1079
2846,1118
2847,1143
2848,1167
2849,1213
2850,1239
2851,1265
2852,1313
2853,1341
2854,1362
2855,137
2856,1397
2857,1474
2858,1655
2859,2044
2860,2597
2861,3061
2862,3289
2863,3131
2864,2801
2865,2466
2866,2124
2867,1803
2868,1535
2869,1335
2870,1178
2871,1069
2872,958
2873,921
2874,945
2875,99
2876,1047
2877,1132
2878,1152
2879,1167
2880,1151
2881,1118
2882,1094
2883,1069
2884,1074
2885,1072
2886,107
2887,1094
2888,1114
2889,1133
2890,1181
2891,1187
2892,1229
2893,1265
2894,1294
2895,1324
2896,1337
2897,1379
2898,141
2899,153
2900,1835
2901,2368
2902,289
2903,3276
2904,328
2905,3026
2906,267
2907,2337
2908,2003
2909,173
2910,1471
2911,1279
2912,1138
2913,1011
2914,942
2915,908
2916,912
2917,966
2918,1023
2919,1063
2920,1103
2921,1099
2922,108
2923,1058
2924,1034
2925,1011
2926,1008
2927,1035
2928,1049
2929,1053
2930,1098
2931,1119
2932,1168
2933,1179
2934,1219
2935,1239
2936,1291
2937,1303
2938,1335
2939,1359
2940,1398
2941,1482
2942,1724
2943,2223
2944,2755
2945,3206
2946,3331
2947,3131
2948,2784
2949,2436
2950,2097
2951,1793
2952,1535
2953,1344
2954,1169
2955,1046
2956,945
2957,905
2958,912
2959,941
2960,983
2961,1056
2962,1088
2963,1079
2964,1083
2965,1069
2966,1033
2967,1008
2968,102
2969,1023
2970,1034
2971,1046
2972,1075
2973,1103
2974,1104
2975,1136
2976,1179
2977,1207
2978,1233
2979,1266
2980,1303
2981,1309
2982,1333
2983,1363
2984,1438
2985,1535
2986,1882
2987,2407
2988,2912
2989,3243
2990,3226
2991,2933
2992,2599
2993,2254
2994,1918
2995,1657
2996,1429
2997,1223
2998,1079
2999,962
3000,919
3001,891
3002,911
3003,985
3004,1048
3005,1089
3006,1103
3007,11
3008,1093
3009,1057
3010,1011
3011,1002
3012,982
3013,983
3014,1008
3015,1051
3016,1073
3017,1094
3018,1129
3019,1165
3020,1211
3021,1214
3022,1264
3023,1282
3024,1322
3025,1339
3026,1403
3027,1584
3028,1968
3029,2515
3030,2967
3031,3195
3032,311
3033,2799
3034,2461
3035,2126
3036,1818
3037,1565
3038,1353
3039,1197
3040,1036
3041,933
3042,896
3043,901
3044,923
3045,991
3046,1061
3047,1104
3048,11
3049,1075
3050,1045
3051,1009
3052,976
3053,98
3054,959
3055,976
3056,1008
3057,1036
3058,1062
3059,1091
3060,1142
3061,1164
3062,1199
3063,1219
3064,1246
3065,1278
3066,1322
3067,1421
3068,1726
3069,2267
3070,2815
3071,3233
3072,3307
3073,3045
3074,2713
3075,2377
3076,2036
3077,1743
3078,1493
3079,1309
3080,1136
3081,99
3082,896
3083,862
3084,851
3085,89
3086,94
3087,976
3088,1013
3089,1013
3090,986
3091,97
3092,925
3093,912
3094,902
3095,912
3096,931
3097,95
3098,982
3099,1019
3100,1057
3101,1091
3102,1119
3103,1159
3104,1212
3105,1231
3106,1258
3107,1366
3108,1605
3109,2117
3110,2686
3111,3148
3112,328
3113,3119
3114,2783
3115,2446
3116,2095
3117,1791
3118,1535
3119,1342
3120,1159
3121,997
3122,898
3123,857
3124,835
3125,871
3126,947
3127,98
3128,1009
3129,1019
3130,1004
3131,976
3132,938
3133,914
3134,897
3135,905
3136,922
3137,938
3138,961
3139,1005
3140,104
3141,1083
3142,1118
3143,1152
3144,12
3145,1228
3146,1259
3147,131
3148,1486
3149,1879
3150,2452
3151,2983
3152,3258
3153,3203
3154,2889
3155,2529
3156,2193
3157,1853
3158,1591
3159,1353
3160,1166
3161,1039
3162,914
3163,859
3164,858
3165,912
3166,959
3167,1017
3168,1062
3169,1058
3170,1051
3171,1015
3172,963
3173,941
3174,928
3175,932
3176,944
3177,944
3178,976
3179,1009
3180,1062
3181,1094
3182,1118
3183,1152
3184,1175
3185,1201
3186,1237
3187,1291
3188,1423
3189,1778
3190,2362
3191,2943
3192,3384
3193,3403
3194,3138
3195,2749
3196,2385
3197,2046
3198,1731
3199,1493
3200,1292
3201,1104
3202,959
3203,853
3204,815
3205,808
3206,839
3207,885
3208,933
3209,971
3210,961
3211,954
3212,927
3213,887
3214,866
3215,87
3216,879
3217,88
3218,925
3219,933
3220,975
3221,1003
3222,104
3223,1087
3224,1135
3225,1157
3226,121
3227,123
3228,1262
3229,129
3230,1399
3231,1701
3232,2269
3233,2861
3234,3351
3235,3478
3236,3226
3237,2846
3238,2449
3239,2106
3240,1779
3241,1522
3242,1297
3243,1118
3244,973
3245,876
3246,775
3247,816
3248,838
3249,883
3250,927
3251,976
3252,969
3253,972
3254,944
3255,897
3256,884
3257,867
3258,884
3259,912
3260,944
3261,947
3262,986
3263,1038
3264,107
3265,109
3266,1136
3267,1163
3268,1195
3269,1245
3270,1267
3271,1293
3272,1322
3273,1377
3274,152
3275,1915
3276,2495
3277,3058
3278,3391
3279,3312
3280,2976
3281,2595
3282,2223
3283,1898
3284,1601
3285,134
3286,1157
3287,1011
3288,912
3289,848
3290,847
3291,894
3292,961
3293,104
3294,1095
3295,1113
3296,1104
3297,1055
3298,1009
3299,983
3300,965
3301,956
3302,951
3303,963
3304,1014
3305,1023
3306,1071
3307,1109
3308,1143
3309,1167
3310,1195
3311,1223
3312,1264
3313,1283
3314,1341
3315,1494
3316,1895
3317,2469
3318,2999
3319,3343
3320,3248
3321,2929
3322,2559
3323,2219
3324,1879
3325,1586
3326,1347
3327,1155
3328,997
3329,809
3330,831
3331,896
3332,959
3333,1008
3334,1037
3335,1019
3336,997
3337,967
3338,951
3339,934
3340,931
3341,935
3342,973
3343,983
3344,1038
3345,1049
3346,1104
3347,1124
3348,117
3349,1202
3350,1232
3351,126
3352,1293
3353,1332
3354,1379
3355,1508
3356,1871
3357,2447
3358,3008
3359,3373
3360,3364
3361,3061
3362,2673
3363,2304
3364,1968
3365,1649
3366,141
3367,1201
3368,1043
3369,91
3370,841
3371,819
3372,839
3373,862
3374,1165
3375,1191
3376,1223
3377,125
3378,1296
3379,1339
3380,1535
3381,1998
3382,2629
3383,3217
3384,3519
3385,3346
3386,2951
3387,2544
3388,2161
3389,1789
3390,1492
3391,1245
3392,1066
3393,91
3394,816
3395,762
3396,752
3397,803
3398,866
3399,951
3400,1004
3401,1015
3402,1008
3403,996
3404,983
3405,935
3406,918
3407,923
3408,946
3409,957
3410,986
3411,1021
3412,1051
3413,1104
3414,1117
3415,1165
3416,1193
3417,1221
3418,1245
3419,1296
3420,1429
3421,1776
3422,2347
3423,2893
3424,3275
3425,3247
3426,2938
3427,2529
3428,2144
3429,1809
3430,1514
3431,1263
3432,1075
3433,906
3434,822
3435,779
3436,8
3437,841
3438,917
3439,1011
3440,1077
3441,1072
3442,1078
3443,104
3444,1008
3445,973
3446,976
3447,957
3448,965
3449,995
3450,1022
3451,1059
3452,1097
3453,1118
3454,1153
3455,1179
3456,1195
3457,1238
3458,1266
3459,1296
3460,1346
3461,1583
3462,2096
3463,2693
3464,3247
3465,3455
3466,3255
3467,2859
3468,2478
3469,2096
3470,177
3471,1483
3472,1251
3473,1099
3474,939
3475,83
3476,787
3477,781
3478,813
3479,88
3480,959
3481,1047
3482,1058
3483,1082
3484,1072
3485,1047
3486,1023
3487,1008
3488,101
3489,1004
3490,1007
3491,1023
3492,1051
3493,1055
3494,1071
3495,1111
3496,1127
3497,1168
3498,1185
3499,1204
3500,1245
3501,1275
3502,1353
3503,1626
3504,2166
3505,2798
3506,3274
3507,3414
3508,3151
3509,2793
3510,2384
3511,1971
3512,1648
3513,137
3514,1159
3515,972
3516,849
3517,752
3518,716
3519,72
3520,77
3521,819
3522,92
3523,946
3524,971
3525,977
3526,959
3527,945
3528,932
3529,931
3530,93
3531,943
3532,961
3533,987
3534,1019
3535,1063
3536,1103
3537,1132
3538,1163
3539,1202
3540,1232
3541,1266
3542,1298
3543,1351
3544,1456
3545,1742
3546,2262
3547,2862
3548,322
3549,3254
3550,2947
3551,2617
3552,2243
3553,1888
3554,1613
3555,134
3556,1138
3557,991
3558,869
3559,823
3560,798
3561,834
3562,9
3563,979
3564,1057
3565,1099
3566,1105
3567,1072
3568,1045
3569,1013
3570,983
3571,986
3572,982
3573,1008
3574,1044
3575,1059
3576,1103
3577,113
3578,1153
3579,119
3580,1231
3581,1275
3582,1296
3583,1382
3584,1601
3585,2045
3586,2611
3587,3041
3588,3171
3589,2974
3590,2642
3591,2288
3592,1939
3593,1639
3594,1382
3595,1157
3596,1011
3597,897
3598,83
3599,817
3600,859
3601,906
3602,982
3603,1065
3604,1079
3605,1098
3606,1088
3607,1053
3608,1018
3609,992
3610,101
3611,993
3612,1011
3613,104
3614,1055
3615,1107
3616,1119
3617,1172
3618,1211
3619,1226
3620,1247
3621,1287
3622,1326
3623,1459
3624,1824
3625,2377
3626,2941
3627,3321
3628,331
3629,3013
3630,2636
3631,2263
3632,1899
3633,1606
3634,1359
3635,1162
3636,1006
3637,882
3638,816
3639,789
3640,807
3641,855
3642,914
3643,983
3644,1021
3645,1015
3646,1007
3647,983
3648,96
3649,929
3650,925
3651,942
3652,95
3653,992
3654,1017
3655,1061
3656,1093
3657,1131
3658,1154
3659,1203
3660,1219
3661,1248
3662,1311
3663,1425
3664,1711
3665,225
3666,2803
3667,3191
3668,3248
3669,295
3670,2608
3671,2256
3672,1905
3673,16
3674,1373
3675,1162
3676,1018
3677,895
3678,832
3679,814
3680,862
3681,912
3682,1008
3683,1073
3684,1099
3685,1088
3686,1072
3687,1043
3688,995
3689,954
3690,946
3691,959
3692,976
3693,995
3694,1015
3695,1055
3696,1101
3697,1142
3698,1162
3699,1184
3700,1221
3701,1263
3702,1397
3703,174
3704,2283
3705,2811
3706,3141
3707,3154
3708,2867
3709,2513
3710,216
3711,1798
3712,1532
3713,1298
3714,1136
3715,955
3716,874
3717,809
3718,82
3719,894
3720,96
3721,105
3722,1104
3723,1118
3724,1098
3725,1066
3726,1019
3727,99
3728,969
3729,963
3730,981
3731,999
3732,1038
3733,1056
3734,1091
3735,1124
3736,1165
3737,1178
3738,1195
3739,1239
3740,1363
3741,1712
3742,2277
3743,2862
3744,3301
3745,3359
3746,306
3747,2681
3748,2304
3749,1942
3750,1648
3751,1391
3752,1182
3753,1008
3754,873
3755,799
3756,762
3757,777
3758,854
3759,906
3760,944
3761,971
3762,965
3763,956
3764,912
3765,874
3766,851
3767,858
3768,859
3769,875
3770,91
3771,933
3772,976
3773,1015
3774,1043
3775,1085
3776,1131
3777,1173
3778,1179
3779,1242
3780,1307
3781,1535
3782,2096
3783,2715
3784,3281
3785,3535
3786,3314
3787,2901
3788,2497
3789,2113
3790,1777
3791,1507
3792,1287
3793,1089
3794,932
3795,842
3796,771
3797,735
3798,778
3799,823
3800,887
3801,933
3802,961
3803,936
3804,922
3805,88
3806,854
3807,853
3808,849
3809,852
3810,865
3811,919
3812,931
3813,975
3814,1007
3815,1072
3816,1068
3817,1143
3818,1168
3819,1191
3820,1235
3821,1258
3822,1287
3823,1319
3824,1411
3825,1667
3826,2163
3827,2782
3828,3314
3829,3473
3830,3255
3831,2864
3832,248
3833,2099
3834,1776
3835,1515
3836,1293
3837,1115
3838,976
3839,88
3840,834
3841,813
3842,851
3843,911
3844,969
3845,1001
3846,102
3847,1007
3848,976
3849,944
3850,915
3851,912
3852,882
3853,898
3854,913
3855,966
3856,983
3857,1013
3858,1059
3859,1086
3860,1136
3861,1163
3862,1194
3863,1237
3864,1257
3865,1285
3866,1301
3867,1344
3868,1469
3869,1743
3870,2301
3871,2832
3872,3232
3873,3278
3874,2994
3875,2623
3876,2274
3877,1925
3878,1614
3879,1367
3880,1174
3881,1035
3882,922
3883,859
3884,871
3885,897
3886,972
3887,1042
3888,1103
3889,1113
3890,1088
3891,1063
3892,1008
3893,99
3894,971
3895,961
3896,963
3897,978
3898,1023
3899,1038
3900,1074
3901,1077
3902,1115
3903,1138
3904,1172
3905,1205
3906,1243
3907,1284
3908,1274
3909,1323
3910,1343
3911,1431
3912,1705
3913,2224
3914,28
3915,3259
3916,3361
3917,3134
3918,2753
3919,2416
3920,2061
3921,1717
3922,147
3923,125
3924,1083
3925,965
3926,866
3927,827
3928,821
3929,848
3930,918
3931,988
3932,1021
3933,1023
3934,1011
3935,993
3936,976
3937,944
3938,931
3939,949
3940,964
3941,976
3942,1014
3943,1023
3944,1057
3945,1099
3946,112
3947,1149
3948,1182
3949,1233
3950,1239
3951,1277
3952,1299
3953,1337
3954,1357
3955,1375
3956,1417
3957,152
3958,1803
3959,2313
3960,2866
3961,3312
3962,3344
3963,3083
3964,271
3965,2339
3966,1995
3967,169
3968,1434
3969,1232
3970,1078
3971,962
3972,881
3973,85
3974,862
3975,903
3976,99
3977,1055
3978,1072
3979,1088
3980,1072
3981,1052
3982,1019
3983,993
3984,992
3985,976
3986,976
3987,1008
3988,1036
3989,107
3990,1101
3991,1125
3992,1168
3993,12
3994,1219
3995,1257
3996,1279
3997,1299
3998,1324
3999,1344
4000,137
4001,1401
4002,1463
4003,1671
4004,2082
4005,2628
4006,3069
4007,3248
4008,3095
4009,2778
4010,2425
4011,2075
4012,1765
4013,1494
4014,1287
4015,1114
4016,998
4017,91
4018,887
4019,859
4020,907
4021,96
4022,1047
4023,1093
4024,1103
4025,1107
4026,1087
4027,1059
4028,1042
4029,1019
4030,1011
4031,1023
4032,104
4033,1074
4034,1104
4035,114
4036,1168
4037,1191
4038,1222
4039,1247
4040,1257
4041,1296
4042,1317
4043,1344
4044,1361
4045,1407
4046,1397
4047,1454
4048,1523
4049,1749
4050,2186
4051,2701
4052,3087
4053,3184
4054,2992
4055,2676
4056,2325
4057,1999
4058,1715
4059,1475
4060,1274
4061,1108
4062,996
4063,918
4064,895
4065,896
4066,923
4067,99
4068,1062
4069,1111
4070,1118
4071,1125
4072,1091
4073,1072
4074,1047
4075,1037
4076,1036
4077,104
4078,1071
4079,1129
4080,1123
4081,1155
4082,1189
4083,1205
4084,1227
4085,1267
4086,1313
4087,1322
4088,1328
4089,138
4090,1381
4091,1408
4092,1447
4093,157
4094,1888
4095,2362
4096,2804
4097,3071
4098,3054
4099,2819
4100,2503
4101,2185
4102,1872
4103,1618
4104,1396
4105,1218
4106,1078
4107,977
4108,919
4109,906
4110,919
4111,96
4112,1015
4113,1104
4114,1114
4115,111
4116,1105
4117,1101
4118,1072
4119,1056
4120,1047
4121,105
4122,1043
4123,1082
4124,1101
4125,1121
4126,1163
4127,1195
4128,1228
4129,1255
4130,1273
4131,1301
4132,1343
4133,1338
4134,1351
4135,136
4136,1424
4137,153
4138,1847
4139,2333
4140,2773
4141,3026
4142,3029
4143,2775
4144,248
4145,2161
4146,1849
4147,1591
4148,1389
4149,1214
4150,1091
4151,989
4152,941
4153,918
4154,943
4155,1008
4156,1077
4157,1155
4158,1153
4159,1173
4160,1162
4161,1126
4162,1104
4163,1069
4164,1061
4165,1057
4166,1059
4167,1086
4168,1115
4169,1146
4170,1168
4171,1195
4172,1222
4173,1262
4174,1296
4175,131
4176,1342
4177,1377
4178,1456
4179,1697
4180,2155
4181,2639
4182,2981
4183,3051
4184,2871
4185,2559
4186,2256
4187,1951
4188,1669
4189,1419
4190,1248
4191,1091
4192,976
4193,896
4194,899
4195,913
4196,962
4197,1044
4198,1107
4199,1131
4200,1135
4201,1118
4202,1091
4203,1057
4204,1019
4205,1011
4206,101
4207,1022
4208,1045
4209,1082
4210,1108
4211,1133
4212,1179
4213,1195
4214,1233
4215,1259
4216,128
4217,1319
4218,136
4219,1473
4220,1808
4221,2317
4222,2821
4223,3163
4224,3204
4225,2968
4226,2659
4227,2299
4228,1967
4229,1685
4230,1443
4231,1244
4232,111
4233,976
4234,886
4235,849
4236,848
4237,879
4238,927
4239,982
4240,1039
4241,1034
4242,1039
4243,1015
4244,991
4245,965
4246,945
4247,942
4248,958
4249,994
4250,1009
4251,104
4252,108
4253,1113
4254,1135
4255,1166
4256,12
4257,1232
4258,1253
4259,1291
4260,1329
4261,1479
4262,1808
4263,2352
4264,2843
4265,3159
4266,3157
4267,2901
4268,2559
4269,2215
4270,1883
4271,1617
4272,1371
4273,1182
4274,104
4275,942
4276,88
4277,851
4278,899
4279,938
4280,1037
4281,1095
4282,1115
4283,1107
4284,1103
4285,1084
4286,1035
4287,1004
4288,997
4289,992
4290,991
4291,1006
4292,1042
4293,1079
4294,1119
4295,1153
4296,1168
4297,1197
4298,1241
4299,1245
4300,1292
4301,1422
4302,1766
4303,2293
4304,2773
4305,3118
4306,3118
4307,2875
4308,2547
4309,221
4310,1877
4311,1597
4312,1356
4313,1173
4314,104
4315,928
4316,857
4317,831
4318,862
4319,912
4320,974
4321,1052
4322,106
4323,1057
4324,1043
4325,1023
4326,982
4327,958
4328,96
4329,967
4330,964
4331,993
4332,1023
4333,1056
4334,1087
4335,1136
4336,1165
4337,1211
4338,1222
4339,1245
4340,1286
4341,1318
4342,1393
4343,1682
4344,2145
4345,2707
4346,3181
4347,3344
4348,3139
4349,2802
4350,2432
4351,2112
4352,1774
4353,1518
4354,1299
4355,1137
4356,988
4357,911
4358,83
4359,831
4360,846
4361,889
4362,945
4363,987
4364,999
4365,1003
4366,982
4367,971
4368,934
4369,917
4370,917
4371,933
4372,956
4373,995
4374,1008
4375,1059
4376,1088
4377,1127
4378,1152
4379,1171
4380,1209
4381,1266
4382,1267
4383,1309
4384,1429
4385,1761
4386,2315
4387,2832
4388,3221
4389,327
4390,3038
4391,2679
4392,232
4393,1955
4394,1669
4395,1422
4396,1211
4397,1076
4398,951
4399,848
4400,843
4401,848
4402,873
4403,954
4404,1002
4405,1036
4406,1034
4407,1014
4408,1001
4409,967
4410,957
4411,96
4412,942
4413,959
4414,1009
4415,1023
4416,1057
4417,1087
4418,111
4419,1142
4420,1182
4421,1227
4422,1379
4423,1702
4424,2253
4425,277
4426,3135
4427,3151
4428,2899
4429,2559
4430,2224
4431,1895
4432,1618
4433,1377
4434,1203
4435,104
4436,912
4437,832
4438,801
4439,813
4440,854
4441,914
4442,977
4443,1011
4444,1013
4445,993
4446,999
4447,975
4448,949
4449,933
4450,96
4451,956
4452,1002
4453,1043
4454,1059
4455,1088
4456,1134
4457,1175
4458,1246
4459,1479
4460,1953
4461,2511
4462,293
4463,3121
4464,296
4465,266
4466,2314
4467,1981
4468,1677
4469,1424
4470,1227
4471,1065
4472,944
4473,836
4474,827
4475,833
4476,88
4477,938
4478,1009
4479,1059
4480,1071
4481,1053
4482,1023
4483,1005
4484,97
4485,96
4486,974
4487,973
4488,997
4489,1033
4490,1072
4491,1095
4492,1121
4493,1154
4494,1238
4495,1431
4496,1827
4497,2448
4498,2919
4499,3179
4500,3094
4501,2789
4502,2419
4503,2089
4504,1721
4505,1461
4506,1247
4507,1044
4508,919
4509,832
4510,768
4511,806
4512,858
4513,915
4514,995
4515,104
4516,1047
4517,1021
4518,1005
4519,976
4520,941
4521,927
4522,943
4523,942
4524,962
4525,1008
4526,1039
4527,1074
4528,1114
4529,1141
4530,1184
4531,1208
4532,1245
4533,1357
4534,1661
4535,2243
4536,2871
4537,3363
4538,3519
4539,3248
4540,2844
4541,2449
4542,2098
4543,1759
4544,1487
4545,1263
4546,1061
4547,914
4548,813
4549,784
4550,751
4551,782
4552,839
4553,895
4554,955
4555,963
4556,943
4557,923
4558,898
4559,864
4560,849
4561,863
4562,871
4563,907
4564,928
4565,961
4566,993
4567,1033
4568,1073
4569,1118
4570,1149
4571,118
4572,1239
4573,126
4574,1283
4575,1331
4576,1425
4577,1746
4578,2316
4579,2944
4580,3503
4581,3621
4582,3322
4583,2877
4584,2463
4585,2093
4586,1758
4587,1488
4588,125
4589,1072
4590,942
4591,816
4592,777
4593,763
4594,802
4595,857
4596,912
4597,945
4598,973
4599,944
4600,95
4601,897
4602,887
4603,878
4604,88
4605,901
4606,916
4607,95
4608,987
4609,998
4610,1056
4611,11
4612,1143
4613,1155
4614,1198
4615,1207
4616,1261
4617,1296
4618,1316
4619,1353
4620,1366
4621,1415
4622,1586
4623,1989
4624,2586
4625,3161
4626,353
4627,344
4628,3093
4629,2656
4630,2271
4631,1926
4632,161
4633,1371
4634,1168
4635,992
4636,884
4637,811
4638,789
4639,825
4640,879
4641,948
4642,1013
4643,1022
4644,1014
4645,1014
4646,977
4647,96
4648,938
4649,93
4650,943
4651,951
4652,987
4653,101
4654,1033
4655,1072
4656,1113
4657,115
4658,1172
4659,1199
4660,1236
4661,1269
4662,1293
4663,1328
4664,1347
4665,1367
4666,1413
4667,1535
4668,1884
4669,2419
4670,2955
4671,3314
4672,328
4673,2969
4674,2608
4675,2238
4676,1872
4677,1577
4678,1338
4679,1136
4680,993
4681,893
4682,827
4683,839
4684,882
4685,948
4686,1037
4687,109
4688,1111
4689,1104
4690,1094
4691,1072
4692,104
4693,101
4694,1004
4695,999
4696,1011
4697,1062
4698,1072
4699,1118
4700,1152
4701,1158
4702,1193
4703,1229
4704,125
4705,1269
4706,1297
4707,1328
4708,1356
4709,1382
4710,1425
4711,16
4712,1977
4713,2535
4714,3027
4715,3297
4716,3211
4717,2883
4718,2509
4719,2157
4720,1826
4721,1535
4722,1319
4723,1135
4724,982
4725,897
4726,85
4727,832
4728,864
4729,93
4730,1008
4731,1053
4732,1072
4733,1091
4734,1062
4735,1041
4736,1035
4737,1023
4738,1007
4739,993
4740,1031
4741,1059
4742,1086
4743,1101
4744,1134
4745,1182
4746,12
4747,1232
4748,126
4749,1296
4750,1322
4751,1344
4752,137
4753,1395
4754,1407
4755,1478
4756,1632
4757,2064
4758,2599
4759,3094
4760,3279
4761,3151
4762,2832
4763,2469
4764,2128
4765,1803
4766,1517
4767,1298
4768,1134
4769,987
4770,912
4771,853
4772,862
4773,895
4774,944
4775,1014
4776,1071
4777,1099
4778,1095
4779,1075
4780,1072
4781,1063
4782,1037
4783,1018
4784,1023
4785,1059
4786,1055
4787,1104
4788,1136
4789,1165
4790,1183
4791,1233
4792,1239
4793,1283
4794,1306
4795,1332
4796,1349
4797,139
4798,1395
4799,143
4800,1487
4801,1654
4802,2033
4803,2547
4804,3013
4805,3188
4806,3055
4807,2752
4808,2436
4809,2096
4810,1744
4811,1499
4812,1329
4813,1102
4814,1023
4815,928
4816,885
4817,912
4818,939
4819,1034
4820,1099
4821,1146
4822,1182
4823,1168
4824,113
4825,1104
4826,1086
4827,1056
4828,1058
4829,1056
4830,1088
4831,1113
4832,1127
4833,1152
4834,1184
4835,123
4836,1237
4837,1273
4838,1294
4839,1322
4840,1343
4841,136
4842,1382
4843,1434
4844,1578
4845,1918
4846,242
4847,287
4848,3116
4849,3051
4850,2768
4851,2437
4852,2108
4853,1805
4854,1523
4855,1299
4856,1143
4857,1015
4858,938
4859,911
4860,921
4861,95
4862,104
4863,1104
4864,1143
4865,1167
4866,113
4867,1137
4868,1089
4869,1072
4870,1072
4871,105
4872,1049
4873,1072
4874,1091
4875,1133
4876,1147
4877,1168
4878,12
4879,1237
4880,1271
4881,1301
4882,1324
4883,1331
4884,1356
4885,1378
4886,1387
4887,1436
4888,1527
4889,1778
4890,2288
4891,2815
4892,3203
4893,3284
4894,3051
4895,2702
4896,2352
4897,2
4898,1698
4899,1472
4900,1274
4901,1106
4902,986
4903,912
4904,879
4905,883
4906,945
4907,991
4908,1068
4909,1094
4910,1111
4911,1079
4912,1062
4913,1056
4914,998
4915,99
4916,988
4917,1009
4918,1021
4919,15
4920,961
4921,1108
4922,1142
4923,1168
4924,12
4925,1227
4926,1245
4927,1277
4928,131
4929,1342
4930,1357
4931,1389
4932,1395
4933,1424
4934,1535
4935,1817
4936,232
4937,283
4938,3189
4939,3237
4940,299
4941,2672
4942,2317
4943,1965
4944,1681
4945,1441
4946,125
4947,1099
4948,1007
4949,915
4950,891
4951,915
4952,955
4953,1015
4954,1079
4955,1098
4956,1127
4957,1088
4958,1058
4959,1023
4960,1023
4961,1008
4962,1005
4963,1015
4964,966
4965,863
4966,816
4967,833
4968,874
4969,945
4970,1021
4971,1067
4972,1067
4973,1057
4974,1044
4975,1002
4976,971
4977,955
4978,954
4979,976
4980,999
4981,1031
4982,1051
4983,1092
4984,1128
4985,1149
4986,12
4987,1216
4988,1244
4989,1308
4990,1435
4991,1789
4992,2351
4993,291
4994,325
4995,3246
4996,2933
4997,2559
4998,2202
4999,187
5000,1584
5001,1338
5002,1147
5003,991
5004,865
5005,784
5006,817
5007,839
5008,901
5009,974
5010,1023
5011,104
5012,1046
5013,1008
5014,974
5015,944
5016,929
5017,937
5018,953
5019,963
5020,1013
5021,1039
5022,1072
5023,1104
5024,1147
5025,1173
5026,1207
5027,1242
5028,1282
5029,1296
5030,136
5031,1535
5032,1966
5033,2555
5034,3099
5035,3408
5036,3306
5037,2962
5038,2591
5039,2204
5040,1866
5041,159
5042,1354
5043,1159
5044,1015
5045,879
5046,815
5047,793
5048,839
5049,871
5050,936
5051,976
5052,999
5053,1014
5054,969
5055,976
5056,946
5057,923
5058,934
5059,944
5060,97
5061,1003
5062,993
5063,1066
5064,1109
5065,1136
5066,1169
5067,1221
5068,1232
5069,1254
5070,1291
5071,1398
5072,1677
5073,2184
5074,2737
5075,3152
5076,3259
5077,3035
5078,2702
5079,2333
5080,1989
5081,1694
5082,1443
5083,1234
5084,1063
5085,943
5086,867
5087,825
5088,847
5089,893
5090,926
5091,983
5092,1021
5093,1043
5094,1008
5095,1003
5096,999
5097,975
5098,962
5099,991
5100,99
5101,1008
5102,105
5103,1086
5104,1113
5105,1135
5106,1156
5107,1199
5108,1237
5109,1258
5110,1293
5111,1399
5112,1702
5113,2203
5114,2766
5115,3155
5116,3233
5117,2962
5118,2619
5119,2243
5120,1917
5121,1607
5122,135
5123,1166
5124,987
5125,896
5126,833
5127,816
5128,88
5129,931
5130,104
5131,1104
5132,112
5133,1122
5134,1098
5135,1077
5136,1039
5137,1023
5138,1001
5139,1007
5140,1046
5141,1051
5142,1088
5143,1123
5144,1147
5145,1173
5146,1204
5147,1241
5148,1285
5149,1392
5150,1685
5151,2206
5152,2752
5153,3159
5154,3247
5155,2993
5156,2665
5157,2283
5158,1943
5159,1655
5160,1392
5161,118
5162,104
5163,922
5164,821
5165,795
5166,821
5167,849
5168,914
5169,967
5170,1003
5171,1085
5172,997
5173,987
5174,969
5175,957
5176,958
5177,946
5178,979
5179,1006
5180,1015
5181,1057
5182,1122
5183,1141
5184,1185
5185,1205
5186,1234
5187,1283
5188,1381
5189,1663
5190,2193
5191,2751
5192,3205
5193,3299
5194,3101
5195,2752
5196,2385
5197,2033
5198,175
5199,1485
5200,1269
5201,1092
5202,944
5203,862
5204,805
5205,802
5206,831
5207,88
5208,928
5209,967
5210,993
5211,995
5212,975
5213,96
5214,992
5215,944
5216,94
5217,963
5218,977
5219,985
5220,104
5221,1072
5222,1106
5223,1143
5224,1196
5225,1202
5226,1259
5227,1357
5228,1607
5229,2112
5230,2687
5231,31
5232,3287
5233,3095
5234,2762
5235,2402
5236,2031
5237,1735
5238,1472
5239,1277
5240,1105
5241,957
5242,88
5243,823
5244,825
5245,85
5246,912
5247,965
5248,1011
5249,1036
5250,101
5251,989
5252,977
5253,944
5254,94
5255,938
5256,951
5257,981
5258,1022
5259,1049
5260,1104
5261,1127
5262,115
5263,1181
5264,121
5265,1247
5266,136
5267,1609
5268,2111
5269,2701
5270,312
5271,3238
5272,3027
5273,2707
5274,2339
5275,1991
5276,1696
5277,1433
5278,1242
5279,1084
5280,924
5281,849
5282,811
5283,844
5284,909
5285,959
5286,1041
5287,1088
5288,1072
5289,1051
5290,1042
5291,993
5292,97
5293,95
5294,959
5295,962
5296,983
5297,1023
5298,1061
5299,1094
5300,1145
5301,1168
5302,12
5303,1219
5304,1291
5305,1495
5306,1954
5307,2527
5308,2992
5309,3243
5310,3137
5311,2789
5312,2447
5313,2107
5314,1776
5315,1511
5316,1285
5317,1104
5318,962
5319,848
5320,848
5321,816
5322,865
5323,918
5324,974
5325,983
5326,1021
5327,995
5328,959
5329,941
5330,939
5331,916
5332,935
5333,946
5334,963
5335,987
5336,1023
5337,1066
5338,1091
5339,1123
5340,1155
5341,12
5342,1227
5343,1258
5344,1301
5345,1456
5346,1847
5347,2439
5348,3021
5349,3391
5350,3393
5351,3067
5352,2674
5353,2306
5354,197
5355,1684
5356,1423
5357,1235
5358,106
5359,923
5360,836
5361,787
5362,818
5363,845
5364,907
5365,944
5366,974
5367,971
5368,961
5369,929
5370,896
5371,887
5372,88
5373,895
5374,905
5375,96
5376,985
5377,987
5378,1047
5379,1051
5380,1107
5381,1139
5382,1174
5383,1221
5384,1227
5385,1281
5386,1381
5387,1632
5388,2154
5389,2731
5390,3214
5391,3393
5392,3182
5393,2814
5394,2429
5395,2077
5396,1761
5397,1505
5398,1279
5399,1103
5400,947
5401,853
5402,816
5403,816
5404,861
5405,915
5406,97
5407,1005
5408,1011
5409,999
5410,977
5411,954
5412,925
5413,927
5414,912
5415,927
5416,965
5417,978
5418,104
5419,1037
5420,1081
5421,1111
5422,1154
5423,1181
5424,1193
5425,1265
5426,1285
5427,1328
5428,1472
5429,1827
5430,2371
5431,2896
5432,3251
5433,3245
5434,2921
5435,2554
5436,22
5437,1862
5438,1565
5439,1329
5440,1152
5441,994
5442,894
5443,847
5444,871
5445,921
5446,1023
5447,1057
5448,1115
5449,1111
5450,1108
5451,1069
5452,1036
5453,977
5454,987
5455,969
5456,976
5457,978
5458,1017
5459,1054
5460,1072
5461,1116
5462,1146
5463,1171
5464,12
5465,1232
5466,1249
5467,1298
5468,1439
5469,177
5470,2329
5471,2867
5472,3291
5473,333
5474,3059
5475,2685
5476,232
5477,1979
5478,1692
5479,1441
5480,1232
5481,1067
5482,915
5483,849
5484,821
5485,814
5486,858
5487,912
5488,965
5489,1004
5490,995
5491,98
5492,98
5493,944
5494,931
5495,921
5496,936
5497,937
5498,975
5499,1002
5500,104
5501,1072
5502,1096
5503,1153
5504,1168
5505,1203
5506,1251
5507,126
5508,129
5509,1346
5510,1431
5511,1745
5512,229
5513,2839
5514,329
5515,3347
5516,3101
5517,2741
5518,2352
5519,2006
5520,1709
5521,1456
5522,1251
5523,109
5524,95
5525,875
5526,83
5527,823
5528,855
5529,913
5530,977
5531,1008
5532,1022
5533,1011
5534,993
5535,974
5536,97
5537,944
5538,95
5539,959
5540,1001
5541,1037
5542,1053
5543,1082
5544,1113
5545,1157
5546,1183
5547,1214
5548,1257
5549,1279
5550,1301
5551,1333
5552,1434
5553,168
5554,2176
5555,2736
5556,3194
5557,3304
5558,3118
5559,2759
5560,2405
5561,2064
5562,1735
5563,1478
5564,1261
5565,1095
5566,972
5567,88
5568,835
5569,837
5570,885
5571,941
5572,1001
5573,1042
5574,1057
5575,1053
5576,1051
5577,999
5578,998
5579,973
5580,979
5581,994
5582,1023
5583,1075
5584,1094
5585,1116
5586,1137
5587,1192
5588,1212
5589,1243
5590,1273
5591,1304
5592,1327
5593,135
5594,1399
5595,1535
5596,1898
5597,2446
5598,2927
5599,3204
5600,3162
5601,2861
5602,2509
5603,2154
5604,1826
5605,1535
5606,1316
5607,1137
5608,993
5609,897
5610,862
5611,88
5612,928
5613,987
5614,1078
5615,1133
5616,1136
5617,1129
5618,1131
5619,1095
5620,1045
5621,1036
5622,1023
5623,1055
5624,1058
5625,1093
5626,1111
5627,1131
5628,1187
5629,1206
5630,1233
5631,1258
5632,1301
5633,1315
5634,1381
5635,1522
5636,1904
5637,2429
5638,2891
5639,315
5640,3056
5641,2769
5642,2433
5643,2105
5644,179
5645,1515
5646,1296
5647,1117
5648,979
5649,899
5650,858
5651,869
5652,915
5653,982
5654,1054
5655,1094
5656,1115
5657,1115
5658,1087
5659,1059
5660,1023
5661,1021
5662,1035
5663,104
5664,1061
5665,1091
5666,1131
5667,1161
5668,1185
5669,1211
5670,1245
5671,1269
5672,1286
5673,1338
5674,1385
5675,1535
5676,1947
5677,2512
5678,2991
5679,3287
5680,3205
5681,2903
5682,255
5683,2195
5684,1866
5685,1611
5686,1361
5687,1185
5688,1034
5689,925
5690,863
5691,838
5692,863
5693,913
5694,979
5695,1039
5696,1045
5697,1042
5698,104
5699,1011
5700,99
5701,959
5702,958
5703,985
5704,998
5705,104
5706,1051
5707,1088
5708,1122
5709,1151
5710,1201
5711,1234
5712,1241
5713,1271
5714,1341
5715,15
5716,1918
5717,2493
5718,2976
5719,3287
5720,3205
5721,289
5722,2545
5723,2192
5724,1858
5725,1589
5726,1364
5727,1173
5728,1021
5729,91
5730,848
5731,831
5732,862
5733,912
5734,96
5735,104
5736,1042
5737,104
5738,1009
5739,1005
5740,963
5741,944
5742,945
5743,962
5744,977
5745,1006
5746,1053
5747,1071
5748,1099
5749,1138
5750,1179
5751,1205
5752,1233
5753,1265
5754,1285
5755,1355
5756,1527
5757,1941
5758,2512
5759,3021
5760,3302
5761,3183
5762,2885
5763,2512
5764,2154
5765,1827
5766,1535
5767,1312
5768,1136
5769,996
5770,903
5771,849
5772,851
5773,912
5774,963
5775,104
5776,1082
5777,1091
5778,1088
5779,1055
5780,1008
5781,989
5782,974
5783,966
5784,976
5785,995
5786,1031
5787,1045
5788,1081
5789,1126
5790,1147
5791,1177
5792,1203
5793,1231
5794,1265
5795,127
5796,1337
5797,1498
5798,1895
5799,2474
5800,2997
5801,3325
5802,3267
5803,2961
5804,2603
5805,2233
5806,1885
5807,1613
5808,1381
5809,1184
5810,1021
5811,914
5812,848
5813,816
5814,848
5815,907
5816,96
5817,1021
5818,1023
5819,1023
5820,1002
5821,975
5822,944
5823,949
5824,944
5825,96
5826,964
5827,981
5828,1013
5829,1059
5830,1097
5831,1114
5832,115
5833,1183
5834,1219
5835,1265
5836,1287
5837,1301
5838,1339
5839,1347
5840,1395
5841,1531
5842,1847
5843,2394
5844,2946
5845,3345
5846,3376
5847,3063
5848,2703
5849,2322
5850,1973
5851,1683
5852,1442
5853,1232
5854,1072
5855,942
5856,88
5857,838
5858,855
5859,909
5860,962
5861,1032
5862,105
5863,1059
5864,104
5865,1017
5866,973
5867,971
5868,964
5869,961
5870,963
5871,1
5872,1043
5873,1067
5874,1092
5875,1135
5876,1168
5877,1181
5878,1231
5879,1257
5880,1271
5881,1301
5882,1339
5883,1354
5884,1385
5885,1409
5886,1461
5887,161
5888,1973
5889,2517
5890,3027
5891,3307
5892,3221
5893,291
5894,2543
5895,2188
5896,1841
5897,1557
5898,1344
5899,1168
5900,1018
5901,928
5902,883
5903,882
5904,919
5905,973
5906,1058
5907,1099
5908,1124
5909,1115
5910,1104
5911,1069
5912,1051
5913,1008
5914,1013
5915,1015
5916,1041
5917,1061
5918,1088
5919,1111
5920,1137
5921,1158
5922,1219
5923,1239
5924,1259
5925,1281
5926,1317
5927,1345
5928,1365
5929,1392
5930,1412
5931,1443
5932,1535
5933,181
5934,2309
5935,2822
5936,318
5937,3205
5938,2953
5939,2609
5940,2253
5941,192
5942,1638
5943,1382
5944,1206
5945,105
5946,947
5947,871
5948,891
5949,901
5950,987
5951,1045
5952,1104
5953,1132
5954,1136
5955,1129
5956,1104
5957,1059
5958,1045
5959,104
5960,1042
5961,1079
5962,1088
5963,1115
5964,1141
5965,1163
5966,1205
5967,1213
5968,1248
5969,1278
5970,1315
5971,1338
5972,1351
5973,1367
5974,1402
5975,1417
5976,1441
5977,1526
5978,1726
5979,2184
5980,2694
5981,3115
5982,3255
5983,309
5984,2753
5985,2397
5986,2043
5987,1759
5988,1488
5989,1279
5990,1117
5991,993
5992,912
5993,887
5994,881
5995,925
5996,994
5997,1069
5998,1102
5999,1123
6000,1121
6001,1099
6002,1087
6003,105
6004,1036
6005,1037
6006,1046
6007,1067
6008,1089
6009,1111
6010,116
6011,119
6012,1205
6013,1243
6014,1261
6015,1284
6016,1326
6017,1328
6018,136
6019,1386
6020,1405
6021,1454
6022,1561
6023,1857
6024,2351
6025,2843
6026,3142
6027,3147
6028,2881
6029,2559
6030,2227
6031,1904
6032,1619
6033,1399
6034,1216
6035,1053
6036,976
6037,912
6038,897
6039,918
6040,973
6041,1052
6042,1115
6043,1152
6044,1152
6045,1139
6046,1111
6047,1072
6048,1065
6049,107
6050,1056
6051,1062
6052,1083
6053,1112
6054,1135
6055,1164
6056,12
6057,1229
6058,1255
6059,1283
6060,1303
6061,1326
6062,1356
6063,1385
6064,1429
6065,1563
6066,1899
6067,2423
6068,2877
6069,3154
6070,3121
6071,2831
6072,2493
6073,217
6074,184
6075,1565
6076,1345
6077,1171
6078,1047
6079,925
6080,889
6081,895
6082,935
6083,989
6084,1083
6085,1124
6086,1151
6087,1141
6088,1115
6089,1099
6090,1061
6091,1039
6092,999
6093,104
6094,104
6095,1066
6096,1104
6097,1121
6098,1163
6099,1189
6100,1212
6101,1247
6102,128
6103,1296
6104,1328
6105,1349
6106,137
6107,1402
6108,1501
6109,179
6110,2271
6111,2801
6112,3165
6113,3243
6114,3008
6115,2687
6116,2327
6117,1989
6118,1696
6119,1463
6120,1263
6121,1123
6122,991
6123,916
6124,881
6125,895
6126,944
6127,997
6128,1066
6129,1089
6130,1109
6131,1088
6132,1072
6133,1021
6134,1023
6135,986
6136,982
6137,1005
6138,1021
6139,1057
6140,1084
6141,1104
6142,1139
6143,1168
6144,1202
6145,1232
6146,1254
6147,1278
6148,131
6149,133
6150,1349
6151,1391
6152,1449
6153,1655
6154,2064
6155,2597
6156,3034
6157,3245
6158,3125
6159,28
6160,248
6161,2129
6162,1802
6163,1535
6164,1328
6165,1147
6166,1023
6167,938
6168,862
6169,897
6170,939
6171,971
6172,1053
6173,1093
6174,1106
6175,1103
6176,1083
6177,1044
6178,102
6179,101
6180,99
6181,1008
6182,1011
6183,1037
6184,1077
6185,1104
6186,1133
6187,1158
6188,1183
6189,1232
6190,1245
6191,1285
6192,1315
6193,1325
6194,1346
6195,1367
6196,1421
6197,1554
6198,1886
6199,2416
6200,2905
6201,3197
6202,3183
6203,2881
6204,2559
6205,2218
6206,1889
6207,16
6208,1373
6209,1191
6210,1043
6211,937
6212,895
6213,875
6214,902
6215,974
6216,1015
6217,1089
6218,1122
6219,11
6220,1082
6221,1047
6222,1008
6223,1004
6224,98
6225,984
6226,1006
6227,1033
6228,1072
6229,1095
6230,1127
6231,1151
6232,1194
6233,1204
6234,1246
6235,1287
6236,1309
6237,1317
6238,1355
6239,1376
6240,1384
6241,1395
6242,1456
6243,1626
6244,2022
6245,2547
6246,3007
6247,3271
6248,3137
6249,2855
6250,2504
6251,2173
6252,1843
6253,1583
6254,1346
6255,117
6256,1044
6257,932
6258,882
6259,876
6260,904
6261,953
6262,1019
6263,1095
6264,1103
6265,1101
6266,1078
6267,107
6268,1018
6269,1003
6270,995
6271,997
6272,102
6273,1042
6274,1077
6275,1095
6276,1136
6277,1146
6278,1186
6279,1214
6280,1243
6281,1278
6282,1307
6283,1325
6284,1344
6285,1379
6286,1387
6287,1421
6288,1457
6289,1605
6290,1926
6291,2438
6292,2879
6293,3134
6294,3103
6295,2825
6296,2523
6297,2176
6298,1863
6299,1589
6300,136
6301,1179
6302,1053
6303,964
6304,898
6305,899
6306,911
6307,966
6308,1055
6309,1111
6310,112
6311,1126
6312,1114
6313,1103
6314,1074
6315,105
6316,1033
6317,1041
6318,1041
6319,1087
6320,1117
6321,1136
6322,1168
6323,1183
6324,1231
6325,1251
6326,1279
6327,1319
6328,1329
6329,137
6330,1392
6331,1395
6332,1419
6333,1473
6334,1586
6335,1857
6336,2339
6337,2804
6338,3059
6339,3024
6340,2774
6341,2463
6342,2144
6343,1854
6344,1559
6345,1346
6346,1185
6347,1041
6348,95
6349,911
6350,912
6351,95
6352,1017
6353,1098
6354,1158
6355,1193
6356,117
6357,1165
6358,1127
6359,1095
6360,1081
6361,1065
6362,1072
6363,1089
6364,1096
6365,1139
6366,1172
6367,1202
6368,1222
6369,1265
6370,1291
6371,1321
6372,1324
6373,1366
6374,1372
6375,1397
6376,1415
6377,1456
6378,1584
6379,1893
6380,2388
6381,2864
6382,3137
6383,3104
6384,2861
6385,2544
6386,2205
6387,1897
6388,1619
6389,1405
6390,1222
6391,1094
6392,971
6393,921
6394,909
6395,921
6396,963
6397,1033
6398,1083
6399,1107
6400,1106
6401,1101
6402,1083
6403,105
6404,1019
6405,1039
6406,1023
6407,1043
6408,1078
6409,1094
6410,112
6411,1137
6412,117
6413,12
6414,1239
6415,1273
6416,1289
6417,1331
6418,1339
6419,1354
6420,1393
6421,1459
6422,1668
6423,2109
6424,2603
6425,299
6426,3122
6427,2976
6428,2701
6429,2373
6430,2057
6431,1759
6432,152
6433,1315
6434,1156
6435,1023
6436,945
6437,901
6438,903
6439,942
6440,989
6441,1066
6442,1103
6443,1111
6444,11
6445,1088
6446,105
6447,1018
6448,1007
6449,995
6450,1021
6451,1017
6452,1056
6453,1088
6454,1118
6455,1136
6456,1173
6457,1207
6458,1249
6459,1261
6460,1296
6461,1311
6462,1334
6463,1349
6464,1377
6465,1424
6466,1508
6467,1763
6468,2231
6469,2721
6470,305
6471,3123
6472,2899
6473,2605
6474,2265
6475,1281
6476,1425
6477,1245
6478,1105
6479,987
6480,946
6481,926
6482,933
6483,1002
6484,1053
6485,1136
6486,1168
6487,1156
6488,1151
6489,1107
6490,107
6491,1041
6492,1022
6493,1015
6494,1041
6495,1031
6496,1088
6497,1094
6498,1136
6499,1158
6500,1185
6501,1218
6502,1245
6503,1279
6504,1295
6505,1328
6506,1351
6507,1361
6508,144
6509,1621
6510,2036
6511,2559
6512,2949
6513,3139
6514,3003
6515,2727
6516,2411
6517,2094
6518,17
6519,1281
6520,1307
6521,133
6522,137
6523,1409
6524,1559
6525,1933
6526,2452
6527,2883
6528,3135
6529,3006
6530,2758
6531,2414
6532,2079
6533,1778
6534,1505
6535,1311
6536,1136
6537,1007
6538,943
6539,903
6540,913
6541,963
6542,1015
6543,1074
6544,1115
6545,1132
6546,1106
6547,1098
6548,1061
6549,102
6550,1019
6551,1021
6552,1046
6553,1051
6554,1076
6555,1104
6556,1143
6557,117
6558,1232
6559,124
6560,1264
6561,1289
6562,1331
6563,1341
6564,1373
6565,1458
6566,1712
6567,2218
6568,2749
6569,3131
6570,3239
6571,3018
6572,2678
6573,2351
6574,2012
6575,1706
6576,1477
6577,1285
6578,1123
6579,99
6580,916
6581,866
6582,88
6583,912
6584,959
6585,1003
6586,1067
6587,106
6588,1043
6589,1023
6590,994
6591,976
6592,966
6593,961
6594,981
6595,99
6596,105
6597,1071
6598,1104
6599,1141
6600,1173
6601,1207
6602,1238
6603,1265
6604,1296
6605,1311
6606,1345
6607,1424
6608,1597
6609,2012
6610,2559
6611,3003
6612,32
6613,3062
6614,2758
6615,2419
6616,2093
6617,1791
6618,1531
6619,1327
6620,1164
6621,1023
6622,941
6623,88
6624,879
6625,907
6626,955
6627,999
6628,1061
6629,1086
6630,1068
6631,1067
6632,104
6633,979
6634,978
6635,973
6636,991
6637,1008
6638,1047
6639,1082
6640,1105
6641,1137
6642,1174
6643,1197
6644,1235
6645,1282
6646,1312
6647,1324
6648,1348
6649,1378
6650,1474
6651,1739
6652,2226
6653,2726
6654,3083
6655,3121
6656,2886
6657,2583
6658,2242
6659,1902
6660,1627
6661,1379
6662,1214
6663,1067
6664,953
6665,909
6666,895
6667,934
6668,987
6669,1079
6670,1145
6671,1155
6672,1168
6673,1134
6674,1097
6675,1081
6676,104
6677,1017
6678,1023
6679,104
6680,1065
6681,1091
6682,1127
6683,1162
6684,12
6685,1232
6686,1245
6687,1296
6688,1319
6689,1309
6690,1365
6691,1474
6692,1809
6693,2312
6694,28
6695,3098
6696,3106
6697,2875
6698,2543
6699,2218
6700,189
6701,1603
6702,1383
6703,1203
6704,1072
6705,947
6706,883
6707,859
6708,889
6709,929
6710,993
6711,1053
6712,1095
6713,1082
6714,1056
6715,1023
6716,1001
6717,991
6718,974
6719,985
6720,1008
6721,1046
6722,1074
6723,1102
6724,1135
6725,1167
6726,1191
6727,1232
6728,127
6729,1289
6730,1319
6731,1326
6732,1353
6733,1409
6734,1535
6735,189
6736,2437
6737,2913
6738,3207
6739,3181
6740,2875
6741,2526
6742,2198
6743,1895
6744,1602
6745,1367
6746,1193
6747,1058
6748,944
6749,892
6750,859
6751,888
6752,951
6753,1008
6754,1066
6755,1083
6756,1088
6757,1049
6758,104
6759,989
6760,976
6761,976
6762,975
6763,1008
6764,1053
6765,1071
6766,109
6767,1129
6768,1151
6769,1189
6770,1221
6771,1246
6772,1283
6773,1308
6774,1344
6775,136
6776,1385
6777,1452
6778,1648
6779,2094
6780,2628
6781,3039
6782,319
6783,3024
6784,2726
6785,2379
6786,2064
6787,1746
6788,1489
6789,1287
6790,1136
6791,1
6792,912
6793,882
6794,899
6795,932
6796,1031
6797,1085
6798,1114
6799,1111
6800,1099
6801,1087
6802,1037
6803,1019
6804,997
6805,1001
6806,1005
6807,1021
6808,1059
6809,1097
6810,113
6811,1151
6812,1183
6813,1212
6814,1235
6815,1277
6816,1311
6817,1335
6818,1375
6819,1455
6820,1661
6821,2113
6822,2661
6823,3031
6824,3139
6825,2938
6826,2625
6827,2297
6828,1968
6829,1663
6830,1424
6831,123
6832,1075
6833,966
6834,899
6835,891
6836,937
6837,981
6838,1046
6839,1091
6840,1136
6841,1123
6842,1104
6843,1066
6844,104
6845,997
6846,1003
6847,993
6848,1008
6849,102
6850,1084
6851,1091
6852,1114
6853,1137
6854,1179
6855,1219
6856,1253
6857,128
6858,1309
6859,1347
6860,1445
6861,175
6862,2304
6863,2829
6864,3212
6865,3244
6866,3008
6867,2657
6868,2297
6869,1971
6870,1683
6871,1453
6872,1275
6873,11
6874,969
6875,886
6876,856
6877,862
6878,893
6879,948
6880,979
6881,1006
6882,1022
6883,1008
6884,959
6885,939
6886,915
6887,912
6888,913
6889,942
6890,963
6891,981
6892,1015
6893,1073
6894,1102
6895,1111
6896,115
6897,1184
6898,122
6899,125
6900,1264
6901,1297
6902,1344
6903,1572
6904,1907
6905,2487
6906,2988
6907,3297
6908,3254
6909,2924
6910,2582
6911,2206
6912,1892
6913,1614
6914,1391
6915,1201
6916,1072
6917,931
6918,871
6919,843
6920,857
6921,918
6922,96
6923,1013
6924,1009
6925,1011
6926,1
6927,961
6928,924
6929,929
6930,913
6931,923
6932,943
6933,96
6934,989
6935,1013
6936,1053
6937,1098
6938,1128
6939,1171
6940,1187
6941,1215
6942,1254
6943,1271
6944,1317
6945,1328
6946,136
6947,1472
6948,1747
6949,2263
6950,2819
6951,325
6952,3353
6953,3104
6954,272
6955,2352
6956,1991
6957,1685
6958,1431
6959,1226
6960,1063
6961,929
6962,869
6963,843
6964,855
6965,924
6966,991
6967,1053
6968,1088
6969,1081
6970,1045
6971,1011
6972,974
6973,941
6974,932
6975,942
6976,948
6977,983
6978,992
6979,1037
6980,1065
6981,1099
6982,1132
6983,117
6984,1195
6985,1219
6986,1264
6987,1284
6988,1303
6989,1319
6990,1403
6991,1635
6992,2113
6993,2689
6994,3154
6995,335
6996,3149
6997,2795
6998,2418
6999,2069
7000,1744
7001,1466
7002,127
7003,1078
7004,959
7005,851
7006,818
7007,825
7008,857
7009,928
7010,994
7011,1034
7012,1034
7013,1008
7014,997
7015,949
7016,927
7017,912
7018,926
7019,926
7020,91
7021,997
7022,1034
7023,1051
7024,1104
7025,1136
7026,1153
7027,1182
7028,1222
7029,1255
7030,1271
7031,1299
7032,1325
7033,1344
7034,139
7035,1485
7036,1787
7037,2306
7038,2896
7039,3319
7040,3395
7041,3133
7042,2751
7043,2368
7044,2
7045,1701
7046,1438
7047,1254
7048,1078
7049,951
7050,85
7051,822
7052,814
7053,859
7054,912
7055,983
7056,1018
7057,1022
7058,1006
7059,99
7060,1
7061,94
7062,942
7063,963
7064,932
7065,991
7066,1003
7067,1041
7068,1072
7069,1101
7070,1143
7071,1154
7072,12
7073,1239
7074,1261
7075,1289
7076,1326
7077,1345
7078,1353
7079,1395
7080,1399
7081,1475
7082,1661
7083,2064
7084,2635
7085,3131
7086,3349
7087,3184
7088,2855
7089,2471
7090,2121
7091,1775
7092,1519
7093,1287
7094,1114
7095,982
7096,88
7097,833
7098,843
7099,871
7100,943
7101,999
7102,1067
7103,1111
7104,1081
7105,1056
7106,1038
7107,1003
7108,991
7109,998
7110,991
7111,1023
7112,1051
7113,1068
7114,1106
7115,1158
7116,1174
7117,1198
7118,1233
7119,1269
7120,1296
7121,1322
7122,1337
7123,1379
7124,1397
7125,1426
7126,144
7127,1527
7128,1765
7129,2237
7130,2769
7131,3111
7132,3155
7133,2906
7134,2594
7135,2235
7136,1895
7137,1623
7138,1383
7139,12
7140,1042
7141,946
7142,877
7143,887
7144,899
7145,967
7146,104
7147,1104
7148,1152
7149,1162
7150,115
7151,1127
7152,1107
7153,1071
7154,1061
7155,1057
7156,108
7157,1082
7158,1118
7159,1152
7160,1176
7161,1209
7162,1232
7163,1267
7164,1296
7165,1322
7166,1335
7167,1363
7168,1383
7169,1425
7170,1564
7171,1871
7172,2378
7173,2843
7174,3106
7175,3046
7176,2811
7177,2458
7178,2128
7179,1794
7180,1535
7181,1329
7182,118
7183,1023
7184,934
7185,881
7186,891
7187,916
7188,959
7189,1046
7190,1088
7191,1115
7192,1119
7193,1111
7194,1091
7195,1065
7196,1059
7197,1038
7198,1023
7199,1081
7200,1095
7201,1121
7202,1161
7203,1183
7204,1202
7205,1234
7206,1261
7207,13
7208,1319
7209,1341
7210,1357
7211,1407
7212,1407
7213,1509
7214,1725
7215,219
7216,2706
7217,3083
7218,3165
7219,2973
7220,2634
7221,2303
7222,1968
7223,1693
7224,1439
7225,1254
7226,1113
7227,989
7228,919
7229,885
7230,915
7231,939
7232,1002
7233,1082
7234,1117
7235,1118
7236,1108
7237,1079
7238,1084
7239,1034
7240,1037
7241,1023
7242,104
7243,1055
7244,1088
7245,1125
7246,1142
7247,1181
7248,12
7249,1232
7250,1262
7251,1291
7252,1317
7253,1339
7254,136
7255,1379
7256,1443
7257,1613
7258,1985
7259,2515
7260,2963
7261,3167
7262,3063
7263,2782
7264,2431
7265,2141
7266,1792
7267,1535
7268,1308
7269,1151
7270,1034
7271,976
7272,911
7273,912
7274,941
7275,1033
7276,1079
7277,1133
7278,1118
7279,1118
7280,1104
7281,1064
7282,1008
7283,1037
7284,1005
7285,1015
7286,1023
7287,1075
7288,1083
7289,1113
7290,1161
7291,1174
7292,1217
7293,1242
7294,1269
7295,1291
7296,1319
7297,1341
7298,1413
7299,1595
7300,1997
7301,2534
7302,2974
7303,3158
7304,3025
7305,2738
7306,2391
7307,2055
7308,1754
7309,1487
7310,1281
7311,1133
7312,995
7313,924
7314,903
7315,912
7316,951
7317,1049
7318,1106
7319,1102
7320,1127
7321,109
7322,1072
7323,1023
7324,995
7325,983
7326,974
7327,994
7328,1018
7329,1051
7330,1082
7331,1104
7332,115
7333,1181
7334,12
7335,1232
7336,1246
7337,1285
7338,1303
7339,1347
7340,1421
7341,1595
7342,2078
7343,2654
7344,312
7345,3293
7346,3122
7347,2817
7348,2448
7349,2111
7350,1803
7351,1557
7352,1363
7353,1201
7354,1066
7355,949
7356,889
7357,874
7358,913
7359,946
7360,977
7361,1023
7362,104
7363,1019
7364,992
7365,958
7366,938
7367,919
7368,915
7369,927
7370,95
7371,976
7372,1041
7373,1038
7374,1077
7375,1105
7376,115
7377,1168
7378,1196
7379,1251
7380,1282
7381,128
7382,1328
7383,1374
7384,1558
7385,1973
7386,2515
7387,3039
7388,3307
7389,3211
7390,2905
7391,2527
7392,2179
7393,1861
7394,1602
7395,1369
7396,1218
7397,107
7398,959
7399,892
7400,866
7401,887
7402,946
7403,978
7404,1015
7405,1023
7406,1033
7407,994
7408,976
7409,943
7410,926
7411,912
7412,929
7413,931
7414,962
7415,1008
7416,1043
7417,1077
7418,1097
7419,1132
7420,1163
7421,1194
7422,1225
7423,127
7424,1296
7425,1325
7426,1343
7427,1367
7428,1379
7429,1475
7430,1743
7431,2298
7432,2826
7433,3233
7434,3312
7435,3035
7436,2678
7437,232
7438,1968
7439,1664
7440,1431
7441,1247
7442,1105
7443,976
7444,905
7445,894
7446,901
7447,96
7448,1042
7449,1089
7450,1111
7451,1109
7452,1069
7453,1043
7454,992
7455,963
7456,949
7457,954
7458,967
7459,982
7460,1023
7461,1045
7462,1091
7463,1125
7464,1152
7465,1182
7466,1229
7467,1251
7468,1268
7469,1303
7470,1329
7471,1347
7472,1363
7473,144
7474,1695
7475,2179
7476,2733
7477,3179
7478,3271
7479,3054
7480,2704
7481,2352
7482,1995
7483,1698
7484,144
7485,1261
7486,1087
7487,966
7488,894
7489,862
7490,863
7491,923
7492,986
7493,1037
7494,1067
7495,1057
7496,104
7497,1008
7498,973
7499,973
7500,948
7501,945
7502,969
7503,1002
7504,104
7505,1056
7506,1093
7507,113
7508,1168
7509,1183
7510,1232
7511,1243
7512,1266
7513,1296
7514,1326
7515,1351
7516,1379
7517,1394
7518,1453
7519,1654
7520,2075
7521,2653
7522,318
7523,3413
7524,3261
7525,2874
7526,2499
7527,2163
7528,1823
7529,1535
7530,1357
7531,1186
7532,1034
7533,944
7534,865
7535,861
7536,879
7537,915
7538,96
7539,1035
7540,1072
7541,1042
7542,1022
7543,983
7544,959
7545,947
7546,944
7547,947
7548,978
7549,998
7550,1034
7551,1069
7552,1104
7553,1137
7554,1163
7555,1227
7556,1244
7557,1263
7558,1285
7559,1322
7560,1338
7561,1371
7562,1383
7563,1426
7564,1579
7565,1905
7566,2448
7567,2975
7568,325
7569,32
7570,2875
7571,2522
7572,2176
7573,1858
7574,1577
7575,1347
7576,1186
7577,1036
7578,944
7579,895
7580,903
7581,923
7582,1011
7583,107
7584,112
7585,1157
7586,1151
7587,111
7588,1072
7589,1034
7590,1006
7591,1002
7592,1014
7593,1034
7594,1045
7595,1068
7596,1097
7597,1131
7598,1176
7599,1186
7600,1226
7601,1247
7602,1279
7603,1296
7604,1328
7605,1372
7606,1507
7607,1828
7608,2371
7609,2898
7610,3221
7611,3222
7612,2943
7613,2598
7614,2234
7615,189
7616,1617
7617,1373
7618,12
7619,1053
7620,934
7621,866
7622,848
7623,873
7624,914
7625,958
7626,1008
7627,1047
7628,104
7629,1015
7630,99
7631,989
7632,957
7633,95
7634,955
7635,972
7636,101
7637,1057
7638,1071
7639,1112
7640,1143
7641,1185
7642,1217
7643,1232
7644,1264
7645,1294
7646,1325
7647,1364
7648,1378
7649,1392
7650,1559
7651,1915
7652,2478
7653,2993
7654,328
7655,3228
7656,2907
7657,255
7658,2191
7659,1867
7660,16
7661,1365
7662,1197
7663,1045
7664,944
7665,882
7666,859
7667,883
7668,927
7669,982
7670,1041
7671,1072
7672,1063
7673,1041
7674,1039
7675,1006
7676,971
7677,978
7678,982
7679,1019
7680,1036
7681,1067
7682,1091
7683,112
7684,1162
7685,1209
7686,1235
7687,1246
7688,1278
7689,1319
7690,1347
7691,136
7692,1392
7693,1409
7694,1455
7695,159
7696,1923
7697,2473
7698,2978
7699,3243
7700,317
7701,2865
7702,2503
7703,2163
7704,1854
7705,1535
7706,1337
7707,1162
7708,1041
7709,925
7710,88
7711,878
7712,912
7713,949
7714,1037
7715,1087
7716,1105
7717,1104
7718,1097
7719,107
7720,1059
7721,1022
7722,1034
7723,1023
7724,104
7725,1084
7726,1103
7727,1143
7728,1168
7729,1195
7730,1223
7731,1266
7732,1286
7733,1313
7734,136
7735,1382
7736,1401
7737,1413
7738,1507
7739,1792
7740,224
7741,2774
7742,3067
7743,3131
7744,2869
7745,2518
7746,2224
7747,1901
7748,1626
7749,139
7750,1203
7751,1077
7752,973
7753,913
7754,927
7755,944
7756,1042
7757,1104
7758,1156
7759,1174
7760,1168
7761,1143
7762,1109
7763,1073
7764,1055
7765,1058
7766,1071
7767,1068
7768,1104
7769,112
7770,115
7771,1174
7772,12
7773,1246
7774,1266
7775,128
7776,1321
7777,1343
7778,1349
7779,1443
7780,1667
7781,2141
7782,2702
7783,3152
7784,3286
7785,3095
7786,2741
7787,2384
7788,2033
7789,1751
7790,1504
7791,1296
7792,1139
7793,1009
7794,929
7795,893
7796,882
7797,91
7798,975
7799,991
7800,1045
7801,1067
7802,1042
7803,1055
7804,982
7805,954
7806,962
7807,958
7808,954
7809,978
7810,1005
7811,1042
7812,1069
7813,1093
7814,1151
7815,1181
7816,1217
7817,1243
7818,1264
7819,1296
7820,1319
7821,1392
7822,1584
7823,2032
7824,2624
7825,3121
7826,3331
7827,317
7828,2836
7829,2478
7830,2149
7831,1813
7832,1579
7833,1369
7834,119
7835,1047
7836,942
7837,899
7838,879
7839,91
7840,954
7841,974
7842,1017
7843,102
7844,1012
7845,993
7846,954
7847,93
7848,933
7849,938
7850,93
7851,931
7852,98
7853,1005
7854,1052
7855,1079
7856,1092
7857,1151
7858,1198
7859,1218
7860,1239
7861,1264
7862,1296
7863,1329
7864,1391
7865,16
7866,2016
7867,2608
7868,3113
7869,3353
7870,3194
7871,2848
7872,2481
7873,2128
7874,1793
7875,1531
7876,1325
7877,1148
7878,1005
7879,925
7880,871
7881,864
7882,919
7883,967
7884,104
7885,1072
7886,1072
7887,105
7888,1023
7889,977
7890,971
7891,947
7892,946
7893,944
7894,983
7895,1012
7896,1034
7897,1061
7898,1105
7899,1138
7900,1165
7901,1193
7902,1237
7903,1266
7904,1267
7905,1302
7906,1356
7907,1522
7908,1926
7909,2512
7910,3027
7911,3312
7912,3229
7913,2896
7914,2509
7915,2164
7916,1837
7917,1535
7918,1341
7919,1178
7920,1019
7921,912
7922,858
7923,869
7924,889
7925,944
7926,983
7927,1023
7928,1023
7929,1023
7930,982
7931,955
7932,917
7933,907
7934,907
7935,925
7936,933
7937,976
7938,1021
7939,1047
7940,1072
7941,1106
7942,1141
7943,1179
7944,1214
7945,1249
7946,1257
7947,1287
7948,1326
7949,1333
7950,1379
7951,1439
7952,1651
7953,215
7954,2743
7955,328
7956,3481
7957,3297
7958,2906
7959,2502
7960,2129
7961,1813
7962,1553
7963,1346
7964,1193
7965,1008
7966,935
7967,88
7968,848
7969,868
7970,899
7971,976
7972,1009
7973,1014
7974,989
7975,97
7976,944
7977,91
7978,912
7979,909
7980,915
7981,933
7982,962
7983,994
7984,104
7985,1067
7986,1097
7987,1135
7988,117
7989,12
7990,1225
7991,1273
7992,1296
7993,1313
7994,1333
7995,1355
7996,1403
7997,1509
7998,1792
7999,2325
8000,2903
8001,3305
8002,333
8003,3049
8004,269
8005,2313
8006,1968
8007,1666
8008,1423
8009,1232
8010,1095
8011,971
8012,876
8013,851
8014,896
8015,935
8016,1003
8017,1063
8018,7
8019,1171
8020,106
8021,1023
8022,979
8023,971
8024,965
8025,956
8026,979
8027,1006
8028,1023
8029,1059
8030,1101
8031,1136
8032,1159
8033,1182
8034,122
8035,1258
8036,1285
8037,1309
8038,1342
8039,1363
8040,1383
8041,1424
8042,1523
8043,1836
8044,2343
8045,2887
8046,3245
8047,3214
8048,2923
8049,2581
8050,2194
8051,1865
8052,1574
8053,1343
8054,1162
8055,1023
8056,937
8057,887
8058,898
8059,927
8060,986
8061,1062
8062,112
8063,117
8064,1174
8065,1201
8066,1229
8067,126
8068,1296
8069,1312
8070,1328
8071,1354
8072,137
8073,1472
8074,1686
8075,2169
8076,2736
8077,319
8078,3323
8079,3105
8080,275
8081,2374
8082,2029
8083,1712
8084,1441
8085,1246
8086,1095
8087,965
8088,88
8089,85
8090,87
8091,913
8092,993
8093,1052
8094,1072
8095,1079
8096,1071
8097,105
8098,994
8099,984
8100,965
8101,971
8102,963
8103,993
8104,1021
8105,1058
8106,1086
8107,1111
8108,1161
8109,1184
8110,1211
8111,1239
8112,1289
8113,1302
8114,1324
8115,1345
8116,1379
8117,1473
8118,1729
8119,2262
8120,285
8121,3326
8122,3434
8123,3191
8124,2801
8125,2415
8126,2046
8127,1729
8128,1488
8129,1274
8130,1133
8131,992
8132,899
8133,857
8134,843
8135,883
8136,924
8137,99
8138,1019
8139,1051
8140,1023
8141,987
8142,963
8143,932
8144,927
8145,919
8146,937
8147,945
8148,984
8149,1018
8150,1042
8151,1077
8152,1106
8153,1155
8154,1178
8155,1219
8156,1234
8157,1263
8158,1297
8159,1318
8160,1343
8161,1378
8162,1444
8163,1686
8164,2198
8165,281
8166,3274
8167,3453
8168,3221
8169,2825
8170,2446
8171,2083
8172,1785
8173,1514
8174,1314
8175,1133
8176,993
8177,895
8178,852
8179,835
8180,877
8181,917
8182,981
8183,1019
8184,1023
8185,1015
8186,993
8187,974
8188,945
8189,927
8190,929
8191,927
8192,945
8193,98
8194,1022
8195,1045
8196,1091
8197,1127
8198,1136
8199,1174
8200,1201
8201,1243
8202,1274
8203,1297
8204,131
8205,1348
8206,1366
8207,1387
8208,141
8209,1424
8210,1447
8211,1466
8212,1475
8213,1527
8214,1677
8215,2032
8216,2638
8217,317
8218,3466
8219,3343
8220,2967
8221,2559
8222,223
8223,186
8224,1583
8225,1347
8226,1178
8227,1038
8228,949
8229,89
8230,912
8231,926
8232,1011
8233,1055
8234,1135
8235,1139
8236,1115
8237,1082
8238,105
8239,1008
8240,989
8241,975
8242,976
8243,983
8244,1023
8245,1051
8246,1079
8247,1088
8248,1153
8249,1168
8250,1202
8251,1227
8252,125
8253,1265
8254,1296
8255,1323
8256,1339
8257,1361
8258,1392
8259,1408
8260,1435
8261,152
8262,1763
8263,2272
8264,2858
8265,3306
8266,3407
8267,3149
8268,2755
8269,2378
8270,2032
8271,1713
8272,1475
8273,1266
8274,1111
8275,997
8276,947
8277,947
8278,965
8279,1021
8280,1118
8281,1148
8282,1136
8283,1115
8284,1082
8285,1037
8286,989
8287,944
8288,927
8289,923
8290,927
8291,946
8292,992
8293,1021
8294,1053
8295,1088
8296,11
8297,1154
8298,1168
8299,1197
8300,121
8301,125
8302,126
8303,1285
8304,1392
8305,168
8306,2224
8307,2838
8308,3359
8309,3506
8310,3265
8311,2875
8312,2509
8313,2178
8314,1895
8315,1651
8316,147
8317,1284
8318,1107
8319,982
8320,895
8321,848
8322,859
8323,902
8324,941
8325,943
8326,944
8327,915
8328,875
8329,845
8330,806
8331,797
8332,758
8333,784
8334,796
8335,821
8336,88
8337,885
8338,922
8339,962
8340,986
8341,993
8342,1067
8343,1094
8344,1121
8345,1154
8346,1179
8347,1223
8348,1265
8349,1456
8350,1925
8351,2559
8352,3212
8353,361
8354,3561
8355,3136
8356,2735
8357,2363
8358,2026
8359,1753
8360,1531
8361,1349
8362,1143
8363,991
8364,882
8365,839
8366,816
8367,848
8368,889
8369,913
8370,925
8371,903
8372,859
8373,832
8374,779
8375,758
8376,747
8377,731
8378,747
8379,762
8380,818
8381,829
8382,862
8383,899
8384,927
8385,949
8386,977
8387,1033
8388,1069
8389,1093
8390,1122
8391,1179
8392,12
8393,1216
8394,1252
8395,1294
8396,1458
8397,1889
8398,2531
8399,3235
8400,3792
8401,3782
8402,3344
8403,2841
8404,2432
8405,2081
8406,1776
8407,1535
8408,1329
8409,1147
8410,977
8411,88
8412,825
8413,849
8414,926
8415,963
8416,999
8417,983
8418,944
8419,899
8420,833
8421,793
8422,762
8423,752
8424,722
8425,73
8426,75
8427,789
8428,833
8429,857
8430,869
8431,912
8432,939
8433,954
8434,1002
8435,1013
8436,1069
8437,1088
8438,1123
8439,1166
8440,117
8441,12
8442,1264
8443,145
8444,1945
8445,2637
8446,3398
8447,3986
8448,3894
8449,3435
8450,2891
8451,2475
8452,2107
8453,1821
8454,1593
8455,1378
8456,1166
8457,96
8458,835
8459,773
8460,753
8461,774
8462,815
8463,838
8464,864
8465,822
8466,785
8467,735
8468,697
8469,681
8470,656
8471,634
8472,649
8473,673
8474,705
8475,742
8476,78
8477,816
8478,858
8479,88
8480,919
8481,964
8482,995
8483,1036
8484,1065
8485,1114
8486,1136
8487,1168
8488,1185
8489,1227
8490,1258
8491,1285
8492,1317
8493,1316
8494,1345
8495,1406
8496,1623
8497,2134
8498,2817
8499,3627
8500,4095
8501,3984
8502,3421
8503,2869
8504,2433
8505,209
8506,1769
8507,1521
8508,1312
8509,1127
8510,959
8511,848
8512,79
8513,789
8514,823
8515,867
8516,898
8517,899
8518,88
8519,847
8520,802
8521,759
8522,736
8523,72
8524,702
8525,717
8526,743
8527,755
8528,79
8529,839
8530,859
8531,912
8532,935
8533,964
8534,1013
8535,1045
8536,108
8537,1119
8538,1159
8539,1195
8540,123
8541,1247
8542,1279
8543,1322
8544,1334
8545,1351
8546,1387
8547,1401
8548,143
8549,1456
8550,1575
8551,1938
8552,2559
8553,3267
8554,3845
8555,3875
8556,3439
8557,2922
8558,2472
8559,2096
8560,175
8561,1499
8562,1291
8563,112
8564,981
8565,895
8566,86
8567,889
8568,926
8569,977
8570,104
8571,1046
8572,104
8573,981
8574,933
8575,875
8576,845
8577,823
8578,825
8579,816
8580,843
8581,866
8582,899
8583,93
8584,961
8585,988
8586,1023
8587,1063
8588,1101
8589,1127
8590,1149
8591,1184
8592,1223
8593,1261
8594,1273
8595,1314
8596,1327
8597,1351
8598,1378
8599,1423
8600,1595
8601,2023
8602,2629
8603,3251
8604,3679
8605,3571
8606,315
8607,2704
8608,2311
8609,1955
8610,1665
8611,1439
8612,1258
8613,1097
8614,976
8615,897
8616,848
8617,85
8618,897
8619,963
8620,999
8621,1008
8622,995
8623,965
8624,916
8625,886
8626,855
8627,847
8628,83
8629,854
8630,879
8631,893
8632,924
8633,967
8634,1003
8635,1039
8636,1062
8637,1102
8638,1127
8639,1168
8640,1185
8641,1232
8642,125
8643,1296
8644,1333
8645,1357
8646,1373
8647,1392
8648,1425
8649,1425
8650,1473
8651,1562
8652,1839
8653,2381
8654,2997
8655,3502
8656,3598
8657,3274
8658,2833
8659,2432
8660,209
8661,1758
8662,1502
8663,1311
8664,1147
8665,1013
8666,917
8667,874
8668,867
8669,901
8670,965
8671,1037
8672,1062
8673,1077
8674,1047
8675,1008
8676,978
8677,953
8678,928
8679,912
8680,909
8681,919
8682,95
8683,98
8684,1008
8685,1048
8686,1082
8687,113
8688,1153
8689,1172
8690,1232
8691,1235
8692,1277
8693,1295
8694,1324
8695,1359
8696,1372
8697,1395
8698,1424
8699,143
8700,1465
8701,1558
8702,1839
8703,2355
8704,2927
8705,3376
8706,3391
8707,312
8708,2731
8709,2324
8710,1979
8711,1669
8712,1428
8713,1237
8714,1109
8715,1001
8716,928
8717,891
8718,918
8719,969
8720,1044
8721,1104
8722,1136
8723,1138
8724,1118
8725,1082
8726,1023
8727,994
8728,976
8729,983
8730,976
8731,983
8732,101
8733,104
8734,1073
8735,1102
8736,1133
8737,1157
8738,1205
8739,1223
8740,1261
8741,1299
8742,13
8743,1326
8744,1358
8745,1389
8746,1407
8747,1424
8748,1487
8749,1695
8750,2147
8751,2729
8752,321
8753,3394
8754,3206
8755,2811
8756,2432
8757,207
8758,1755
8759,1491
8760,1313
8761,1152
8762,1038
8763,937
8764,9
8765,9
8766,944
8767,985
8768,1056
8769,1099
8770,1107
8771,1089
8772,1058
8773,1013
8774,978
8775,973
8776,957
8777,978
8778,971
8779,1001
8780,1045
8781,1065
8782,1108
8783,1129
8784,1161
8785,1178
8786,1212
8787,1243
8788,1263
8789,1322
8790,1328
8791,1358
8792,1361
8793,1392
8794,1423
8795,152
8796,1769
8797,2285
8798,2877
8799,3341
8800,3427
8801,3152
8802,2765
8803,2401
8804,2028
8805,1729
8806,1482
8807,1305
8808,1172
8809,1051
8810,962
8811,893
8812,911
8813,95
8814,993
8815,1047
8816,1079
8817,1087
8818,1078
8819,1043
8820,988
8821,955
8822,95
8823,929
8824,937
8825,954
8826,976
8827,1008
8828,1046
8829,1073
8830,1111
8831,1127
8832,1162
8833,1202
8834,1232
8835,1267
8836,1289
8837,1302
8838,1338
8839,136
8840,1386
8841,1446
8842,1654
8843,2128
8844,2704
8845,3211
8846,3433
8847,3205
8848,2849
8849,2458
8850,2108
8851,1782
8852,1533
8853,133
8854,1183
8855,1065
8856,969
8857,916
8858,898
8859,951
8860,1001
8861,1077
8862,1105
8863,1104
8864,1077
8865,1045
8866,986
8867,955
8868,928
8869,923
8870,922
8871,925
8872,957
8873,981
8874,101
8875,1047
8876,1088
8877,112
8878,1151
8879,1175
8880,1219
8881,1241
8882,1266
8883,1313
8884,1344
8885,152
8886,1959
8887,2541
8888,306
8889,3354
8890,3241
8891,2885
8892,2501
8893,2141
8894,1825
8895,1573
8896,135
8897,1181
8898,105
8899,954
8900,897
8901,881
8902,913
8903,967
8904,1041
8905,1064
8906,1074
8907,1023
8908,977
8909,938
8910,902
8911,88
8912,877
8913,885
8914,899
8915,927
8916,962
8917,991
8918,104
8919,1054
8920,1097
8921,1118
8922,1158
8923,1187
8924,1232
8925,1243
8926,1291
8927,1296
8928,1339
8929,1445
8930,1771
8931,2346
8932,2981
8933,3451
8934,3541
8935,3225
8936,2798
8937,2407
8938,207
8939,1774
8940,1535
8941,1358
8942,1199
8943,1047
8944,943
8945,86
8946,846
8947,87
8948,91
8949,972
8950,977
8951,978
8952,959
8953,917
8954,881
8955,851
8956,831
8957,821
8958,823
8959,848
8960,884
8961,91
8962,947
8963,961
8964,1007
8965,1046
8966,1083
8967,1121
8968,1152
8969,12
8970,1229
8971,1243
8972,1273
8973,1306
8974,1344
8975,1357
8976,1371
8977,1409
8978,1478
8979,1728
8980,2255
8981,2885
8982,3423
8983,3583
8984,3335
8985,2875
8986,2472
8987,2111
8988,1807
8989,1559
8990,136
8991,1219
8992,1072
8993,962
8994,899
8995,879
8996,912
8997,956
8998,993
8999,1022
9000,1034
9001,1003
9002,957
9003,923
9004,895
9005,883
9006,865
9007,864
9008,871
9009,892
9010,931
9011,963
9012,1004
9013,1038
9014,1074
9015,1093
9016,113
9017,1176
9018,1199
9019,1229
9020,127
9021,1285
9022,1314
9023,1341
9024,1355
9025,1395
9026,1491
9027,1803
9028,2332
9029,293
9030,336
9031,3411
9032,3088
9033,2697
9034,232
9035,1952
9036,1675
9037,1433
9038,1249
9039,1115
9040,991
9041,914
9042,912
9043,932
9044,987
9045,1053
9046,1109
9047,1142
9048,111
9049,1075
9050,1035
9051,969
9052,929
9053,93
9054,91
9055,917
9056,955
9057,963
9058,997
9059,1018
9060,1058
9061,1094
9062,1124
9063,1153
9064,119
9065,1219
9066,1248
9067,1284
9068,1289
9069,1329
9070,1372
9071,1517
9072,1882
9073,2476
9074,3024
9075,3387
9076,3325
9077,2984
9078,2612
9079,2255
9080,1904
9081,163
9082,141
9083,1234
9084,1087
9085,974
9086,892
9087,87
9088,878
9089,933
9090,973
9091,1023
9092,1042
9093,1019
9094,993
9095,951
9096,918
9097,896
9098,889
9099,883
9100,898
9101,935
9102,945
9103,993
9104,1023
9105,1053
9106,1107
9107,1119
9108,1168
9109,1202
9110,1219
9111,1264
9112,1276
9113,1301
9114,1353
9115,1359
9116,141
9117,1573
9118,1943
9119,2519
9120,3086
9121,3408
9122,3315
9123,2978
9124,2606
9125,2224
9126,1903
9127,1635
9128,1408
9129,125
9130,1104
9131,992
9132,912
9133,897
9134,912
9135,944
9136,973
9137,1039
9138,1051
9139,1038
9140,1005
9141,969
9142,928
9143,918
9144,902
9145,912
9146,917
9147,931
9148,953
9149,997
9150,1033
9151,1066
9152,1099
9153,1139
9154,1165
9155,1194
9156,1223
9157,1269
9158,1287
9159,1325
9160,1345
9161,1383
9162,1403
9163,152
9164,1872
9165,2417
9166,2962
9167,3325
9168,3297
9169,2974
9170,2611
9171,2241
9172,1905
9173,1609
9174,1407
9175,1234
9176,109
9177,976
9178,91
9179,883
9180,898
9181,96
9182,1014
9183,1079
9184,1104
9185,1088
9186,107
9187,1023
9188,998
9189,959
9190,956
9191,95
9192,95
9193,966
9194,1002
9195,1015
9196,1066
9197,1099
9198,1142
9199,1167
9200,1199
9201,123
9202,127
9203,1295
9204,1319
9205,1342
9206,136
9207,1392
9208,1498
9209,1793
9210,232
9211,2864
9212,3248
9213,3255
9214,2979
9215,2618
9216,2254
9217,191
9218,1617
9219,1379
9220,1201
9221,1068
9222,961
9223,912
9224,877
9225,918
9226,96
9227,1038
9228,1089
9229,1104
9230,1074
9231,1071
9232,1043
9233,987
9234,976
9235,951
9236,974
9237,96
9238,997
9239,1022
9240,1051
9241,1099
9242,1113
9243,1148
9244,1177
9245,1219
9246,1241
9247,1264
9248,1294
9249,1307
9250,1334
9251,1363
9252,1417
9253,1535
9254,1889
9255,2421
9256,296
9257,3305
9258,3276
9259,2975
9260,2613
9261,2247
9262,1907
9263,1653
9264,1417
9265,1242
9266,1109
9267,995
9268,915
9269,891
9270,886
9271,927
9272,966
9273,1022
9274,1047
9275,1054
9276,1019
9277,1003
9278,971
9279,952
9280,926
9281,931
9282,941
9283,971
9284,101
9285,104
9286,1057
9287,1089
9288,1135
9289,1172
9290,1199
9291,1228
9292,1249
9293,1283
9294,1317
9295,1339
9296,1355
9297,139
9298,1477
9299,1747
9300,2246
9301,28
9302,3193
9303,3277
9304,3013
9305,2674
9306,2313
9307,1983
9308,1689
9309,1457
9310,1262
9311,1115
9312,997
9313,922
9314,878
9315,887
9316,922
9317,976
9318,104
9319,1072
9320,1083
9321,1067
9322,1058
9323,1011
9324,994
9325,976
9326,973
9327,994
9328,999
9329,1039
9330,1062
9331,1091
9332,1125
9333,1163
9334,1179
9335,1207
9336,1256
9337,1283
9338,1298
9339,1328
9340,1345
9341,1386
9342,1505
9343,1778
9344,2287
9345,2803
9346,3133
9347,3149
9348,2883
9349,2544
9350,2199
9351,1876
9352,16
9353,1389
9354,1207
9355,1073
9356,976
9357,912
9358,907
9359,943
9360,99
9361,1058
9362,1109
9363,1116
9364,1127
9365,1104
9366,1083
9367,1041
9368,1019
9369,993
9370,994
9371,1008
9372,1047
9373,1069
9374,1086
9375,111
9376,1146
9377,1179
9378,1209
9379,1243
9380,1262
9381,1297
9382,1312
9383,1376
9384,1563
9385,1988
9386,2541
9387,2986
9388,3216
9389,3089
9390,2767
9391,2423
9392,2101
9393,1792
9394,1533
9395,1344
9396,1178
9397,1051
9398,944
9399,893
9400,881
9401,917
9402,963
9403,1003
9404,1049
9405,1069
9406,1041
9407,104
9408,989
9409,974
9410,944
9411,943
9412,949
9413,971
9414,994
9415,1022
9416,1058
9417,1085
9418,1135
9419,1146
9420,119
9421,1218
9422,1248
9423,128
9424,1295
9425,1355
9426,1447
9427,1727
9428,2231
9429,278
9430,3179
9431,3216
9432,3008
9433,2656
9434,232
9435,1981
9436,1698
9437,1475
9438,1296
9439,1147
9440,1023
9441,929
9442,88
9443,88
9444,903
9445,96
9446,1019
9447,1066
9448,1051
9449,1017
9450,985
9451,951
9452,95
9453,919
9454,919
9455,934
9456,951
9457,976
9458,1036
9459,1055
9460,1077
9461,1105
9462,1168
9463,119
9464,1213
9465,1242
9466,126
9467,131
9468,1355
9469,1505
9470,1897
9471,2448
9472,2929
9473,3195
9474,3137
9475,2832
9476,248
9477,2143
9478,1833
9479,1574
9480,1378
9481,1191
9482,1071
9483,961
9484,896
9485,873
9486,893
9487,941
9488,1001
9489,1053
9490,1064
9491,1039
9492,1038
9493,988
9494,959
9495,944
9496,942
9497,945
9498,96
9499,998
9500,1011
9501,1051
9502,1075
9503,1122
9504,1139
9505,1177
9506,1216
9507,1235
9508,1285
9509,1328
9510,1462
9511,1824
9512,2361
9513,2849
9514,311
9515,3046
9516,2785
9517,2448
9518,2115
9519,1809
9520,1535
9521,1333
9522,1184
9523,1035
9524,94
9525,899
9526,887
9527,929
9528,987
9529,1059
9530,1086
9531,1099
9532,1094
9533,106
9534,1011
9535,983
9536,974
9537,953
9538,983
9539,976
9540,1007
9541,1047
9542,1059
9543,1101
9544,1129
9545,1167
9546,1191
9547,1216
9548,1264
9549,1292
9550,1452
9551,1824
9552,2379
9553,2897
9554,3205
9555,3165
9556,2889
9557,2512
9558,2201
9559,1893
9560,1622
9561,1409
9562,1241
9563,1073
9564,943
9565,869
9566,848
9567,861
9568,879
9569,944
9570,976
9571,986
9572,993
9573,973
9574,944
9575,913
9576,897
9577,887
9578,898
9579,913
9580,944
9581,97
9582,1001
9583,1049
9584,1079
9585,1119
9586,1145
9587,1187
9588,123
9589,1257
9590,1302
9591,1402
9592,1703
9593,2241
9594,2798
9595,3186
9596,3218
9597,2986
9598,2653
9599,2293
9600,1962
9601,1683
9602,1008
9603,1104
9604,976
9605,884
9606,844
9607,835
9608,875
9609,93
9610,961
9611,1003
9612,1022
9613,991
9614,976
9615,939
9616,921
9617,901
9618,907
9619,927
9620,944
9621,991
9622,1008
9623,105
9624,1084
9625,1135
9626,1147
9627,1191
9628,1213
9629,1243
9630,129
9631,1307
9632,1357
9633,1535
9634,1929
9635,2483
9636,2995
9637,3259
9638,3155
9639,2867
9640,2502
9641,2179
9642,1856
9643,16
9644,1365
9645,1204
9646,1054
9647,94
9648,3007
9649,264
9650,2255
9651,1907
9652,1597
9653,1355
9654,1166
9655,1013
9656,912
9657,867
9658,851
9659,898
9660,97
9661,104
9662,1086
9663,1134
9664,1136
9665,112
9666,1103
9667,1059
9668,1037
9669,1023
9670,1009
9671,1023
9672,1053
9673,1072
9674,1104
9675,1131
9676,1171
9677,1191
9678,1218
9679,1253
9680,1279
9681,1318
9682,1321
9683,1346
9684,1365
9685,1398
9686,1472
9687,1713
9688,2182
9689,2737
9690,3214
9691,3325
9692,3127
9693,2746
9694,2369
9695,2029
9696,1703
9697,1445
9698,1234
9699,1074
9700,96
9701,879
9702,837
9703,854
9704,878
9705,925
9706,1003
9707,1059
9708,1075
9709,1078
9710,1067
9711,1022
9712,1008
9713,971
9714,1006
9715,1013
9716,1021
9717,1053
9718,1073
9719,1111
9720,1165
9721,1168
9722,1216
9723,1246
9724,1264
9725,1298
9726,1321
9727,1338
9728,1378
9729,1403
9730,1405
9731,1446
9732,1456
9733,153
9734,1789
9735,2269
9736,2816
9737,3247
9738,3326
9739,3056
9740,2703
9741,2338
9742,197
9743,1665
9744,1409
9745,122
9746,1063
9747,973
9748,89
9749,863
9750,843
9751,907
9752,976
9753,104
9754,1072
9755,109
9756,1106
9757,1079
9758,1057
9759,1049
9760,1019
9761,1034
9762,1023
9763,1047
9764,1088
9765,1093
9766,1142
9767,1186
9768,1198
9769,1232
9770,125
9771,1281
9772,1306
9773,1337
9774,1359
9775,1387
9776,1397
9777,1418
9778,1425
9779,1441
9780,1487
9781,1635
9782,1996
9783,2515
9784,2999
9785,325
9786,3152
9787,2815
9788,2475
9789,2109
9790,1783
9791,1515
9792,1296
9793,1122
9794,1008
9795,915
9796,88
9797,893
9798,934
9799,1006
9800,1088
9801,1136
9802,1152
9803,1185
9804,112
9805,1118
9806,1075
9807,1053
9808,1067
9809,1066
9810,1083
9811,1082
9812,112
9813,1138
9814,1183
9815,1215
9816,1232
9817,1266
9818,1283
9819,1312
9820,1341
9821,1374
9822,1367
9823,1408
9824,1427
9825,1535
9826,1854
9827,2365
9828,2867
9829,317
9830,3177
9831,2905
9832,2555
9833,2202
9834,1855
9835,157
9836,1352
9837,1161
9838,1045
9839,939
9840,902
9841,881
9842,921
9843,978
9844,1066
9845,1104
9846,1134
9847,1129
9848,1097
9849,1074
9850,1023
9851,1012
9852,1005
9853,1008
9854,1041
9855,1067
9856,1085
9857,1105
9858,1168
9859,1182
9860,1205
9861,1235
9862,1258
9863,128
9864,129
9865,1328
9866,135
9867,1364
9868,1379
9869,1438
9870,157
9871,1857
9872,2396
9873,293
9874,3298
9875,3293
9876,2997
9877,2649
9878,2279
9879,1952
9880,1666
9881,1424
9882,1234
9883,109
9884,986
9885,903
9886,89
9887,893
9888,923
9889,978
9890,1041
9891,1067
9892,1082
9893,1067
9894,1018
9895,981
9896,976
9897,951
9898,966
9899,982
9900,995
9901,1017
9902,1054
9903,1083
9904,112
9905,1151
9906,1179
9907,1218
9908,1232
9909,1261
9910,1285
9911,1328
9912,134
9913,1361
9914,1379
9915,1427
9916,1594
9917,1957
9918,2527
9919,3034
9920,3304
9921,3194
9922,2866
9923,2512
9924,2163
9925,184
9926,1584
9927,1349
9928,1183
9929,1056
9930,943
9931,899
9932,883
9933,912
9934,974
9935,1057
9936,1088
9937,111
9938,1083
9939,1059
9940,1023
9941,1002
9942,97
9943,969
9944,969
9945,979
9946,997
9947,104
9948,1072
9949,1104
9950,1137
9951,1168
9952,1184
9953,1234
9954,1255
9955,1266
9956,1307
9957,1333
9958,136
9959,1375
9960,1403
9961,144
9962,1619
9963,201
9964,255
9965,3041
9966,3296
9967,3162
9968,2873
9969,2479
9970,2136
9971,1809
9972,1535
9973,1318
9974,1164
9975,1003
9976,944
9977,88
9978,912
9979,927
9980,1006
9981,1071
9982,1089
9983,1094
9984,1104
9985,1053
9986,101
9987,971
9988,976
9989,963
9990,981
9991,1003
9992,1039
9993,1051
9994,1078
9995,1107
9996,1145
9997,1169
9998,1199
9999,1239
10000,1252
10001,1284
10002,1313
10003,1334
10004,1344
10005,1382
10006,1399
10007,1413
10008,1487
10009,1727
10010,2202
10011,277
10012,3252
10013,3403
10014,319
10015,2818
10016,2445
10017,2107
10018,1771
10019,1535
10020,1343
10021,1171
10022,105
10023,912
10024,898
10025,863
10026,894
10027,944
10028,981
10029,1047
10030,1067
10031,1023
10032,1021
10033,976
10034,942
10035,93
10036,93
10037,939
10038,933
10039,975
10040,1009
10041,1043
10042,1094
10043,1114
10044,1139
10045,1168
10046,1196
10047,1238
10048,125
10049,1301
10050,131
10051,1333
10052,1366
10053,1377
10054,1393
10055,1411
10056,1445
10057,1475
10058,1631
10059,1961
10060,2513
10061,3035
10062,3341
10063,3269
10064,2967
10065,2602
10066,2239
10067,1911
10068,1615
10069,1413
10070,1217
10071,1074
10072,982
10073,893
10074,881
10075,912
10076,929
10077,989
10078,1037
10079,1067
10080,1043
10081,1057
10082,1046
10083,1001
10084,976
10085,963
10086,963
10087,976
10088,1004
10089,1049
10090,1059
10091,1094
10092,1136
10093,1162
10094,1197
10095,1223
10096,1249
10097,1291
10098,1298
10099,1346
10100,1344
10101,1373
10102,1403
10103,1404
10104,1417
10105,1444
10106,1461
10107,1533
10108,1712
10109,2101
10110,264
10111,3089
10112,3207
10113,3024
10114,2719
10115,2382
10116,2026
10117,1729
10118,1463
10119,1247
10120,1117
10121,987
10122,915
10123,895
10124,898
10125,969
10126,1014
10127,111
10128,1155
10129,1183
10130,1179
10131,1143
10132,1122
10133,107
10134,1073
10135,1046
10136,1066
10137,1062
10138,1087
10139,113
10140,1156
10141,1168
10142,12
10143,1232
10144,1246
10145,129
10146,1296
10147,1328
10148,1346
10149,1397
10150,1392
10151,1401
10152,1442
10153,1569
10154,1862
10155,2385
10156,2876
10157,3184
10158,3155
10159,2891
10160,2559
10161,2214
10162,1879
10163,1616
10164,1378
10165,1195
10166,1063
10167,965
10168,896
10169,869
10170,887
10171,94
10172,983
10173,1062
10174,1085
10175,1095
10176,1079
10177,1059
10178,1043
10179,1007
10180,993
10181,1015
10182,1033
10183,1061
10184,1082
10185,1109
10186,1154
10187,1168
10188,1195
10189,1219
10190,1248
10191,1319
10192,1318
10193,1346
10194,1367
10195,1383
10196,1403
10197,1424
10198,1449
10199,1461
10200,1517
10201,1643
10202,2017
10203,2538
10204,2994
10205,3254
10206,3129
10207,2806
10208,2473
10209,2133
10210,1812
10211,1535
10212,1342
10213,1179
10214,1046
10215,955
10216,914
10217,894
10218,914
10219,97
10220,1021
10221,1088
10222,1107
10223,1115
10224,1104
10225,1072
10226,1072
10227,1055
10228,1043
10229,1023
10230,1053
10231,1075
10232,1096
10233,113
10234,1149
10235,1182
10236,1206
10237,1234
10238,1269
10239,131
10240,1308
10241,1321
10242,1361
10243,1383
10244,1393
10245,1424
10246,139
10247,1452
10248,1463
10249,1472
10250,1488
10251,1559
10252,1733
10253,2106
10254,2615
10255,3031
10256,3205
10257,3021
10258,273
10259,2411
10260,2043
10261,1757
10262,1505
10263,1296
10264,1143
10265,1035
10266,944
10267,914
10268,933
10269,959
10270,104
10271,1091
10272,115
10273,1171
10274,1173
10275,1143
10276,1102
10277,1076
10278,1053
10279,1052
10280,1049
10281,106
10282,1094
10283,1125
10284,114
10285,1186
10286,1213
10287,1232
10288,1255
10289,1287
10290,131
10291,1303
10292,1346
10293,1362
10294,1403
10295,1408
10296,1418
10297,147
10298,1482
10299,1607
10300,1893
10301,2401
10302,2853
10303,3109
10304,3047
10305,2798
10306,248
10307,2161
10308,1835
10309,1567
10310,1372
10311,1202
10312,1059
10313,989
10314,942
10315,956
10316,988
10317,1067
10318,1116
10319,1167
10320,1183
10321,1169
10322,1155
10323,1111
10324,1074
10325,1069
10326,1058
10327,1045
10328,1044
10329,1072
10330,1095
10331,1115
10332,1157
10333,1168
10334,1204
10335,1242
10336,1267
10337,128
10338,1299
10339,1319
10340,1343
10341,1353
10342,1379
10343,1445
10344,165
10345,2067
10346,2608
10347,3047
10348,3248
10349,313
10350,2825
10351,2495
10352,2177
10353,1855
10354,1616
10355,1402
10356,1234
10357,1106
10358,988
10359,923
10360,912
10361,918
10362,965
10363,993
10364,1049
10365,1059
10366,1057
10367,1019
10368,976
10369,965
10370,941
10371,944
10372,928
10373,947
10374,971
10375,995
10376,1023
10377,1057
10378,1084
10379,1136
10380,1151
10381,12
10382,1203
10383,1239
10384,1264
10385,1296
10386,1299
10387,1335
10388,1391
10389,1535
10390,1919
10391,2493
10392,2992
10393,3279
10394,3254
10395,2955
10396,2592
10397,2256
10398,1942
10399,1689
10400,1473
10401,1293
10402,1137
10403,1033
10404,919
10405,865
10406,881
10407,905
10408,946
10409,1004
10410,1008
10411,1023
10412,995
10413,96
10414,944
10415,906
10416,894
10417,887
10418,894
10419,913
10420,948
10421,975
10422,1023
10423,1044
10424,1074
10425,1095
10426,1157
10427,1168
10428,1203
10429,1237
10430,1255
10431,1293
10432,1293
10433,1337
10434,136
10435,1385
10436,1503
10437,1851
10438,2384
10439,2933
10440,3318
10441,3337
10442,3054
10443,2687
10444,2323
10445,1975
10446,1698
10447,1451
10448,1269
10449,1119
10450,985
10451,911
10452,88
10453,902
10454,935
10455,1035
10456,1078
10457,1105
10458,1072
10459,1049
10460,985
10461,945
10462,931
10463,917
10464,919
10465,911
10466,926
10467,944
10468,976
10469,1023
10470,1043
10471,1066
10472,1094
10473,1134
10474,1152
10475,1177
10476,1199
10477,1229
10478,1233
10479,128
10480,1301
10481,1374
10482,1555
10483,1998
10484,2597
10485,3159
10486,3453
10487,3369
10488,3008
10489,2626
10490,2262
10491,1954
10492,1669
10493,1456
10494,1277
10495,1104
10496,957
10497,877
10498,842
10499,83
10500,861
10501,902
10502,941
10503,962
10504,945
10505,923
10506,895
10507,882
10508,829
10509,812
10510,831
10511,847
10512,879
10513,887
10514,921
10515,945
10516,979
10517,1007
10518,1048
10519,1086
10520,1106
10521,1122
10522,1162
10523,1198
10524,1226
10525,1253
10526,1307
10527,1327
10528,1331
10529,1377
10530,1435
10531,1627
10532,2095
10533,2704
10534,3282
10535,3583
10536,345
10537,3053
10538,2639
10539,2269
10540,1934
10541,1681
10542,1435
10543,126
10544,1084
10545,96
10546,864
10547,832
10548,834
10549,871
10550,915
10551,953
10552,969
10553,952
10554,945
10555,9
10556,866
10557,848
10558,845
10559,823
10560,839
10561,874
10562,911
10563,925
10564,95
10565,981
10566,1011
10567,106
10568,1093
10569,1136
10570,1167
10571,119
10572,121
10573,1238
10574,1279
10575,1315
10576,1328
10577,135
10578,1373
10579,1402
10580,1411
10581,1466
10582,1631
10583,2015
10584,2611
10585,3177
10586,3523
10587,3419
10588,3051
10589,2643
10590,2256
10591,1905
10592,1617
10593,1386
10594,1214
10595,1054
10596,935
10597,858
10598,835
10599,87
10600,902
10601,965
10602,1023
10603,1056
10604,1036
10605,1035
10606,977
10607,937
10608,912
10609,894
10610,895
10611,905
10612,937
10613,951
10614,997
10615,1014
10616,1061
10617,1085
10618,1147
10619,1122
10620,1177
10621,1205
10622,1237
10623,1266
10624,1296
10625,1322
10626,1349
10627,136
10628,1371
10629,1407
10630,1487
10631,1683
10632,216
10633,2719
10634,3219
10635,3409
10636,3201
10637,2832
10638,2457
10639,2094
10640,1764
10641,1507
10642,1284
10643,1123
10644,979
10645,906
10646,849
10647,851
10648,881
10649,964
10650,1022
10651,107
10652,1054
10653,1053
10654,1021
10655,977
10656,949
10657,934
10658,934
10659,944
10660,945
10661,976
10662,101
10663,1038
10664,1084
10665,1098
10666,1125
10667,1197
10668,1178
10669,1203
10670,1239
10671,1266
10672,1303
10673,1328
10674,1334
10675,1346
10676,139
10677,1407
10678,1426
10679,1482
10680,1646
10681,2099
10682,2681
10683,3202
10684,3469
10685,3302
10686,296
10687,2593
10688,2213
10689,1861
10690,1607
10691,1375
10692,1195
10693,1062
10694,941
10695,887
10696,845
10697,863
10698,89
10699,935
10700,997
10701,1033
10702,104
10703,1005
10704,974
10705,951
10706,912
10707,912
10708,926
10709,93
10710,945
10711,978
10712,1018
10713,1041
10714,107
10715,1104
10716,113
10717,1174
10718,12
10719,1229
10720,1259
10721,1283
10722,1296
10723,1328
10724,1347
10725,1376
10726,1399
10727,1431
10728,1458
10729,1535
10730,184
10731,2331
10732,2894
10733,329
10734,3333
10735,3071
10736,2736
10737,2357
10738,201
10739,1702
10740,1447
10741,1273
10742,1111
10743,991
10744,911
10745,865
10746,882
10747,903
10748,944
10749,1023
10750,1057
10751,106
10752,1055
10753,1021
10754,1005
10755,967
10756,961
10757,956
10758,951
10759,961
10760,999
10761,1023
10762,1057
10763,1091
10764,112
10765,1153
10766,1197
10767,1206
10768,1234
10769,1275
10770,1277
10771,1306
10772,1334
10773,1344
10774,138
10775,1391
10776,1424
10777,1503
10778,1712
10779,2198
10780,2752
10781,3162
10782,3309
10783,3093
10784,2741
10785,2354
10786,2
10787,1733
10788,1424
10789,1243
10790,1088
10791,976
10792,912
10793,875
10794,889
10795,943
10796,1008
10797,1079
10798,1113
10799,1117
10800,111
10801,1076
10802,1022
10803,993
10804,977
10805,976
10806,973
10807,976
10808,1023
10809,1047
10810,1062
10811,1103
10812,1115
10813,1149
10814,1187
10815,1221
10816,1243
10817,1254
10818,1283
10819,1318
10820,133
10821,1353
10822,1378
10823,1475
10824,1733
10825,2257
10826,2834
10827,3305
10828,3458
10829,3214
10830,28
10831,2451
10832,2082
10833,1762
10834,151
10835,1312
10836,1141
10837,1009
10838,901
10839,857
10840,823
10841,851
10842,897
10843,947
10844,1009
10845,998
10846,997
10847,975
10848,943
10849,912
10850,897
10851,898
10852,89
10853,907
10854,933
10855,966
10856,1003
10857,105
10858,1072
10859,1105
10860,1131
10861,1171
10862,12
10863,1214
10864,1239
10865,1282
10866,1297
10867,1321
10868,1369
10869,1371
10870,1396
10871,1417
10872,1456
10873,1535
10874,1859
10875,2397
10876,2977
10877,3456
10878,3462
10879,316
10880,275
10881,2353
10882,2
10883,1697
10884,1459
10885,1257
10886,1106
10887,964
10888,883
10889,838
10890,841
10891,878
10892,929
10893,977
10894,1023
10895,1018
10896,1033
10897,996
10898,961
10899,935
10900,923
10901,902
10902,906
10903,918
10904,949
10905,982
10906,1015
10907,1046
10908,1085
10909,1115
10910,1158
10911,1175
10912,1195
10913,1238
10914,1264
10915,1286
10916,1318
10917,1358
10918,1357
10919,1386
10920,1401
10921,1424
10922,1425
10923,1456
10924,1534
10925,1776
10926,2257
10927,2839
10928,3309
10929,3437
10930,3184
10931,2789
10932,2394
10933,2025
10934,17
10935,1454
10936,1235
10937,1078
10938,97
10939,883
10940,858
10941,839
10942,895
10943,929
10944,1031
10945,1087
10946,112
10947,1067
10948,1051
10949,1001
10950,989
10951,966
10952,949
10953,971
10954,98
10955,1023
10956,1033
10957,1056
10958,1105
10959,1129
10960,1162
10961,1198
10962,1232
10963,1259
10964,1281
10965,1301
10966,1328
10967,1344
10968,1366
10969,1402
10970,1402
10971,1413
10972,1458
10973,157
10974,1851
10975,2378
10976,2925
10977,3312
10978,3306
10979,3014
10980,2628
10981,2263
10982,1903
10983,16
10984,136
10985,1171
10986,104
10987,936
10988,861
10989,845
10990,865
10991,933
10992,999
10993,1047
10994,1081
10995,1075
10996,1088
10997,1037
10998,1007
10999,982
11000,97
11001,959
11002,979
11003,1009
11004,1043
11005,1073
11006,1095
11007,1131
11008,118
11009,1191
11010,1205
11011,1249
11012,1267
11013,1309
11014,1325
11015,1351
11016,1359
11017,1399
11018,1405
11019,143
11020,1437
11021,1531
11022,1735
11023,2198
11024,2773
11025,3246
11026,338
11027,3161
11028,2801
11029,2422
11030,2075
11031,1761
11032,1458
11033,1275
11034,1099
11035,986
11036,892
11037,848
11038,853
11039,878
11040,931
11041,987
11042,1023
11043,1049
11044,1045
11045,104
11046,999
11047,974
11048,957
11049,962
11050,935
11051,985
11052,1023
11053,104
11054,1072
11055,1094
11056,1136
11057,115
11058,1186
11059,1236
11060,1249
11061,1283
11062,1328
11063,1321
11064,1348
11065,1388
11066,1388
11067,1411
11068,1441
11069,1483
11070,1659
11071,2071
11072,2627
11073,3098
11074,3326
11075,3149
11076,2829
11077,2451
11078,21
11079,1771
11080,1494
11081,1296
11082,1126
11083,989
11084,901
11085,867
11086,849
11087,878
11088,931
11089,1005
11090,1069
11091,1078
11092,1088
11093,107
11094,1061
11095,1009
11096,983
11097,981
11098,986
11099,1004
11100,1039
11101,108
11102,1086
11103,1113
11104,12
11105,1197
11106,1216
11107,123
11108,128
11109,1297
11110,1338
11111,1334
11112,1358
11113,1379
11114,1408
11115,1411
11116,1434
11117,1506
11118,1667
11119,2047
11120,2611
11121,3054
11122,3248
11123,3066
11124,2753
11125,2401
11126,2041
11127,1729
11128,1468
11129,1264
11130,1089
11131,97
11132,896
11133,868
11134,871
11135,912
11136,985
11137,1051
11138,1093
11139,1118
11140,1119
11141,1106
11142,1088
11143,1042
11144,1022
11145,1013
11146,1022
11147,104
11148,1071
11149,11
11150,1141
11151,1168
11152,1199
11153,1213
11154,1246
11155,1276
11156,1296
11157,1313
11158,1343
11159,1358
11160,1378
11161,1403
11162,1419
11163,1412
11164,1486
11165,1666
11166,2068
11167,2605
11168,3083
11169,3271
11170,3116
11171,2784
11172,2445
11173,2107
11174,1777
11175,152
11176,131
11177,1138
11178,1012
11179,849
11180,879
11181,929
11182,993
11183,104
11184,1087
11185,1076
11186,1072
11187,1063
11188,1038
11189,1007
11190,1016
11191,1001
11192,1022
11193,1049
11194,1075
11195,1091
11196,1137
11197,1175
11198,1194
11199,1237
11200,126
11201,1286
11202,1305
11203,1328
11204,1349
11205,1387
11206,1398
11207,1415
11208,1434
11209,1455
11210,1471
11211,1574
11212,1818
11213,2315
11214,2839
11215,3165
11216,3189
11217,2942
11218,2613
11219,2262
11220,1936
11221,164
11222,977
11223,985
11224,1033
11225,1056
11226,1072
11227,1104
11228,1149
11229,1173
11230,1195
11231,1211
11232,1235
11233,1275
11234,1277
11235,1326
11236,1381
11237,1611
11238,2064
11239,2647
11240,315
11241,3377
11242,3198
11243,2843
11244,2475
11245,2134
11246,1839
11247,1607
11248,1392
11249,1213
11250,1085
11251,953
11252,88
11253,859
11254,89
11255,915
11256,976
11257,1005
11258,1014
11259,1006
11260,951
11261,939
11262,897
11263,882
11264,883
11265,883
11266,886
11267,924
11268,949
11269,98
11270,1008
11271,1059
11272,1069
11273,1103
11274,1136
11275,116
11276,12
11277,1232
11278,1232
11279,1294
11280,1361
11281,1609
11282,2127
11283,2736
11284,3339
11285,3568
11286,3359
11287,2947
11288,2554
11289,2212
11290,1878
11291,161
11292,1404
11293,1203
11294,1046
11295,914
11296,833
11297,816
11298,811
11299,854
11300,912
11301,957
11302,963
11303,959
11304,898
11305,881
11306,845
11307,833
11308,814
11309,79
11310,817
11311,849
11312,866
11313,912
11314,95
11315,969
11316,1006
11317,104
11318,1092
11319,1109
11320,1138
11321,1175
11322,1211
11323,1226
11324,1273
11325,1415
11326,1771
11327,2379
11328,303
11329,3568
11330,3649
11331,3268
11332,2799
11333,239
11334,2045
11335,1733
11336,1479
11337,1277
11338,1083
11339,933
11340,835
11341,784
11342,784
11343,867
11344,936
11345,1011
11346,999
11347,991
11348,959
11349,897
11350,849
11351,827
11352,8
11353,803
11354,803
11355,833
11356,842
11357,88
11358,911
11359,939
11360,982
11361,1008
11362,1053
11363,1089
11364,1122
11365,1132
11366,1167
11367,12
11368,1269
11369,1451
11370,1911
11371,2603
11372,3312
11373,379
11374,3713
11375,3214
11376,2735
11377,2327
11378,1955
11379,1649
11380,1392
11381,12
11382,1008
11383,859
11384,767
11385,747
11386,763
11387,812
11388,857
11389,897
11390,899
11391,879
11392,837
11393,79
11394,731
11395,73
11396,703
11397,709
11398,721
11399,738
11400,802
11401,833
11402,853
11403,893
11404,939
11405,955
11406,1011
11407,1055
11408,1069
11409,1105
11410,1147
11411,1191
11412,1216
11413,1261
11414,1277
11415,1333
11416,1497
11417,1942
11418,2631
11419,344
11420,4079
11421,4015
11422,3507
11423,2929
11424,249
11425,2093
11426,1772
11427,1506
11428,1291
11429,1101
11430,917
11431,788
11432,725
11433,72
11434,735
11435,799
11436,83
11437,848
11438,848
11439,816
11440,804
11441,754
11442,74
11443,72
11444,714
11445,702
11446,733
11447,784
11448,807
11449,829
11450,871
11451,912
11452,944
11453,994
11454,1015
11455,1071
11456,1094
11457,1139
11458,1173
11459,1199
11460,1232
11461,1278
11462,1293
11463,1328
11464,1347
11465,1405
11466,1563
11467,2016
11468,2681
11469,3403
11470,392
11471,3818
11472,3319
11473,2793
11474,2356
11475,1953
11476,1648
11477,1374
11478,1168
11479,982
11480,858
11481,785
11482,786
11483,819
11484,881
11485,982
11486,1037
11487,1055
11488,1031
11489,991
11490,925
11491,88
11492,83
11493,833
11494,81
11495,815
11496,835
11497,878
11498,899
11499,939
11500,985
11501,1011
11502,1037
11503,1062
11504,1102
11505,1131
11506,1169
11507,1196
11508,123
11509,1242
11510,127
11511,1318
11512,1455
11513,1812
11514,2455
11515,3161
11516,3771
11517,3837
11518,3443
11519,2917
11520,2472
11521,2066
11522,1729
11523,1451
11524,1245
11525,1056
11526,906
11527,791
11528,736
11529,73
11530,759
11531,825
11532,882
11533,926
11534,926
11535,891
11536,864
11537,817
11538,784
11539,775
11540,778
11541,786
11542,816
11543,852
11544,867
11545,907
11546,958
11547,983
11548,1023
11549,1072
11550,1097
11551,1134
11552,1179
11553,1201
11554,1224
11555,1262
11556,1281
11557,133
11558,1347
11559,1383
11560,1421
11561,1569
11562,1941
11563,2559
11564,3242
11565,3755
11566,3759
11567,3325
11568,2818
11569,2395
11570,2006
11571,168
11572,1422
11573,1225
11574,104
11575,897
11576,813
11577,771
11578,798
11579,827
11580,881
11581,944
11582,976
11583,983
11584,964
11585,927
11586,891
11587,861
11588,854
11589,839
11590,853
11591,884
11592,896
11593,928
11594,96
11595,993
11596,1053
11597,1085
11598,1104
11599,1149
11600,1182
11601,12
11602,1232
11603,1261
11604,1296
11605,1325
11606,136
11607,138
11608,1394
11609,1409
11610,147
11611,1645
11612,2095
11613,2707
11614,3312
11615,3667
11616,347
11617,3056
11618,2608
11619,2193
11620,184
11621,1535
11622,1297
11623,1127
11624,974
11625,873
11626,821
11627,815
11628,849
11629,915
11630,974
11631,1036
11632,105
11633,1045
11634,1018
11635,977
11636,944
11637,914
11638,911
11639,892
11640,921
11641,938
11642,989
11643,1009
11644,1043
11645,1073
11646,1105
11647,1143
11648,1165
11649,1207
11650,124
11651,1274
11652,1297
11653,1326
11654,1345
11655,1375
11656,1392
11657,1398
11658,1434
11659,1503
11660,1743
11661,2245
11662,2853
11663,3402
11664,3536
11665,3262
11666,2845
11667,2434
11668,2034
11669,1712
11670,1444
11671,1225
11672,1056
11673,929
11674,865
11675,827
11676,855
11677,942
11678,1019
11679,1085
11680,1131
11681,1136
11682,1103
11683,1058
11684,1021
11685,973
11686,948
11687,953
11688,945
11689,955
11690,997
11691,1021
11692,1068
11693,1097
11694,1105
11695,1152
11696,1184
11697,1214
11698,1225
11699,1261
11700,1275
11701,1297
11702,1328
11703,136
11704,1437
11705,167
11706,216
11707,2774
11708,3374
11709,3615
11710,3382
11711,2999
11712,2559
11713,2204
11714,1874
11715,1614
11716,1397
11717,1232
11718,1078
11719,965
11720,88
11721,881
11722,885
11723,949
11724,983
11725,1035
11726,1023
11727,1005
11728,948
11729,917
11730,881
11731,845
11732,844
11733,843
11734,848
11735,876
11736,902
11737,917
11738,966
11739,1004
11740,1023
11741,1072
11742,1093
11743,1115
11744,1154
11745,1191
11746,1211
11747,1247
11748,1267
11749,1291
11750,1324
11751,1446
11752,1815
11753,2385
11754,301
11755,3491
11756,3521
11757,3215
11758,2811
11759,2442
11760,2115
11761,1823
11762,1595
11763,1403
11764,1239
11765,109
11766,967
11767,892
11768,878
11769,905
11770,957
11771,978
11772,996
11773,979
11774,938
11775,892
11776,853
11777,811
11778,801
11779,79
11780,782
11781,79
11782,827
11783,848
11784,878
11785,905
11786,937
11787,976
11788,989
11789,1037
11790,1082
11791,1094
11792,1121
11793,1153
11794,1182
11795,1232
11796,1232
11797,1277
11798,1422
11799,1778
11800,2378
11801,3015
11802,3471
11803,3478
11804,3146
11805,2746
11806,2384
11807,2039
11808,177
11809,1554
11810,1358
11811,1191
11812,1023
11813,927
11814,878
11815,909
11816,938
11817,991
11818,1015
11819,1021
11820,994
11821,947
11822,911
11823,832
11824,793
11825,771
11826,757
11827,766
11828,775
11829,809
11830,834
11831,859
11832,896
11833,913
11834,961
11835,977
11836,1007
11837,1054
11838,1087
11839,1104
11840,1136
11841,1167
11842,118
11843,1261
11844,1563
11845,2114
11846,279
11847,3413
11848,365
11849,3409
11850,2998
11851,2585
11852,2247
11853,1934
11854,1698
11855,1499
11856,1309
11857,1107
11858,943
11859,841
11860,785
11861,825
11862,853
11863,88
11864,887
11865,882
11866,848
11867,784
11868,739
11869,698
11870,658
11871,641
11872,64
11873,65
11874,678
11875,699
11876,737
11877,766
11878,796
11879,848
11880,871
11881,907
11882,95
11883,977
11884,1013
11885,1051
11886,1087
11887,1118
11888,1149
11889,1195
11890,1222
11891,1243
11892,1258
11893,1286
11894,136
11895,167
11896,2265
11897,2975
11898,3708
11899,3969
11900,3666
11901,3159
11902,2703
11903,2304
11904,1993
11905,1751
11906,1535
11907,1344
11908,1135
11909,966
11910,843
11911,795
11912,797
11913,827
11914,864
11915,865
11916,853
11917,821
11918,778
11919,72
11920,688
11921,655
11922,624
11923,631
11924,628
11925,657
11926,682
11927,719
11928,752
11929,802
11930,831
11931,869
11932,907
11933,949
11934,977
11935,1006
11936,1056
11937,1072
11938,111
11939,1136
11940,1165
11941,1207
11942,1224
11943,1246
11944,1272
11945,1293
11946,1315
11947,1329
11948,1339
11949,1376
11950,149
11951,1861
11952,248
11953,3237
11954,3911
11955,4002
11956,3531
11957,2963
11958,2534
11959,2147
11960,184
11961,1587
11962,1392
11963,1195
11964,1045
11965,926
11966,871
11967,88
11968,921
11969,966
11970,999
11971,1004
11972,971
11973,912
11974,848
11975,806
11976,754
11977,726
11978,725
11979,715
11980,72
11981,759
11982,788
11983,824
11984,845
11985,887
11986,927
11987,945
11988,976
11989,1037
11990,1059
11991,1085
11992,1107
11993,1131
11994,1163
11995,12
11996,1227
11997,1248
11998,1267
11999,1291
12000,1314
12001,1329
12002,1337
12003,1383
12004,1505
12005,1885
12006,2534
12007,3244
12008,3809
12009,3867
12010,3412
12011,2914
12012,2501
12013,2135
12014,1823
12015,158
12016,1372
12017,12
12018,1041
12019,907
12020,849
12021,848
12022,853
12023,902
12024,942
12025,949
12026,923
12027,893
12028,851
12029,81
12030,757
12031,731
12032,719
12033,733
12034,727
12035,753
12036,791
12037,829
12038,87
12039,898
12040,942
12041,976
12042,1021
12043,1036
12044,1086
12045,1116
12046,1142
12047,117
12048,1219
12049,1238
12050,1279
12051,1286
12052,1318
12053,1335
12054,1365
12055,1389
12056,1403
12057,1406
12058,1443
12059,1571
12060,1915
12061,2514
12062,3174
12063,3642
12064,3641
12065,3258
12066,2806
12067,2407
12068,2046
12069,1751
12070,152
12071,1315
12072,1168
12073,104
12074,935
12075,895
12076,9
12077,912
12078,954
12079,999
12080,1019
12081,1035
12082,985
12083,944
12084,896
12085,871
12086,834
12087,834
12088,823
12089,849
12090,851
12091,89
12092,918
12093,954
12094,986
12095,104
12096,1053
12097,1081
12098,1118
12099,1148
12100,1175
12101,1199
12102,1243
12103,1278
12104,1296
12105,1312
12106,1339
12107,1386
12108,1382
12109,1403
12110,1434
12111,1531
12112,1847
12113,2401
12114,299
12115,3444
12116,3488
12117,3155
12118,2766
12119,2362
12120,2001
12121,1711
12122,1456
12123,1269
12124,1131
12125,987
12126,926
12127,895
12128,912
12129,976
12130,1035
12131,1077
12132,1103
12133,1088
12134,1077
12135,999
12136,972
12137,923
12138,911
12139,899
12140,903
12141,912
12142,934
12143,962
12144,987
12145,1035
12146,1049
12147,1081
12148,1109
12149,114
12150,1169
12151,1198
12152,1226
12153,1259
12154,1289
12155,1328
12156,1346
12157,1358
12158,1365
12159,1408
12160,1521
12161,184
12162,239
12163,2964
12164,3437
12165,3446
12166,3139
12167,2746
12168,2368
12169,2025
12170,1735
12171,1474
12172,1287
12173,1135
12174,1007
12175,912
12176,874
12177,857
12178,886
12179,947
12180,1007
12181,1042
12182,104
12183,1011
12184,976
12185,944
12186,916
12187,892
12188,889
12189,891
12190,911
12191,939
12192,963
12193,985
12194,1023
12195,1063
12196,1086
12197,1136
12198,1153
12199,1186
12200,121
12201,1251
12202,1268
12203,1295
12204,1338
12205,1342
12206,1367
12207,1381
12208,1424
12209,1435
12210,1522
12211,1824
12212,2326
12213,2915
12214,3339
12215,3397
12216,3117
12217,2737
12218,2371
12219,2035
12220,1718
12221,1488
12222,1299
12223,1154
12224,1018
12225,944
12226,896
12227,889
12228,932
12229,97
12230,1039
12231,1086
12232,1085
12233,1078
12234,104
12235,993
12236,965
12237,96
12238,931
12239,944
12240,959
12241,965
12242,995
12243,1023
12244,1058
12245,1087
12246,1115
12247,115
12248,1188
12249,1206
12250,1238
12251,1264
12252,1294
12253,1321
12254,1347
12255,1373
12256,1392
12257,1439
12258,1558
12259,1861
12260,2409
12261,2953
12262,3328
12263,3267
12264,2986
12265,2602
12266,2224
12267,1919
12268,1617
12269,1407
12270,1229
12271,1087
12272,983
12273,932
12274,907
12275,938
12276,1003
12277,1054
12278,1119
12279,1139
12280,112
12281,1093
12282,1043
12283,1005
12284,976
12285,961
12286,956
12287,967
12288,958
12289,994
12290,1022
12291,1053
12292,1088
12293,1113
12294,1138
12295,1168
12296,1195
12297,1219
12298,1248
12299,127
12300,1291
12301,1313
12302,1392
12303,1597
12304,208
12305,2683
12306,3183
12307,3396
12308,3222
12309,2875
12310,2496
12311,2133
12312,1819
12313,1571
12314,1356
12315,119
12316,1072
12317,95
12318,894
12319,852
12320,901
12321,93
12322,985
12323,1023
12324,1044
12325,1023
12326,979
12327,944
12328,913
12329,891
