Index,Amplitude (0-4096)
0,1089
1,1328
2,1520
3,1666
4,1744
5,1806
6,1829
7,1856
8,1853
9,1846
10,1873
11,1959
12,1999
13,2030
14,2009
15,2009
16,1925
17,1821
18,1701
19,1535
20,1249
21,1054
22,799
23,602
24,452
25,397
26,339
27,302
28,313
29,320
30,330
31,340
32,336
33,373
34,445
35,471
36,679
37,934
38,1165
39,1381
40,1535
41,1675
42,1755
43,1831
44,1854
45,1879
46,1921
47,1957
48,2064
49,2086
50,2155
51,2137
52,2069
53,2013
54,1869
55,1791
56,1621
57,1350
58,1095
59,870
60,691
61,541
62,464
63,427
64,416
65,370
66,380
67,356
68,338
69,332
70,391
71,399
72,523
73,731
74,980
75,1246
76,1455
77,1617
78,1725
79,1822
80,1747
81,1949
82,2047
83,2103
84,2079
85,2213
86,2174
87,2127
88,2023
89,1900
90,1779
91,1670
92,1417
93,1199
94,991
95,806
96,661
97,554
98,498
99,464
100,452
101,440
102,426
103,407
104,436
105,400
106,416
107,464
108,627
109,858
110,1089
111,1298
112,1460
113,1600
114,1723
115,1775
116,1858
117,1965
118,2064
119,2115
120,2135
121,2110
122,2020
123,1953
124,1803
125,1695
126,1578
127,1328
128,1104
129,933
130,746
131,642
132,560
133,487
134,501
135,446
136,453
137,415
138,427
139,432
140,407
141,477
142,487
143,654
144,869
145,1082
146,1275
147,1456
148,1599
149,1727
150,1760
151,1811
152,1844
153,1917
154,2003
155,2055
156,2082
157,1990
158,1938
159,1846
160,1737
161,1587
162,1311
163,1088
164,839
165,695
166,548
167,450
168,391
169,361
170,328
171,351
172,357
173,346
174,337
175,350
176,378
177,422
178,549
179,777
180,995
181,1221
182,1421
183,1535
184,1657
185,1744
186,1772
187,1825
188,1874
189,1930
190,1968
191,1975
192,1983
193,1926
194,1821
195,1717
196,1646
197,1385
198,1152
199,908
200,720
201,572
202,473
203,405
204,368
205,320
206,368
207,351
208,343
209,335
210,367
211,397
212,449
213,464
214,647
215,889
216,1106
217,1312
218,1485
219,1590
220,1630
221,1735
222,1765
223,1781
224,1808
225,1850
226,1925
227,1950
228,1936
229,1907
230,1811
231,1684
232,1651
233,1430
234,1200
235,977
236,656
237,557
238,390
239,368
240,318
241,304
242,326
243,326
244,370
245,338
246,331
247,394
248,427
249,432
250,656
251,874
252,1117
253,1342
254,1523
255,1655
256,1725
257,1783
258,1808
259,1844
260,1829
261,1773
262,1829
263,1822
264,1838
265,1872
266,1869
267,1838
268,1744
269,1648
270,1586
271,1323
272,1093
273,816
274,635
275,429
276,307
277,142
278,208
279,172
280,203
281,231
282,272
283,258
284,255
285,312
286,356
287,368
288,589
289,831
290,1088
291,1298
292,1490
293,1611
294,1695
295,1757
296,1795
297,1808
298,1795
299,1786
300,1762
301,1712
302,1688
303,1694
304,1695
305,1735
306,1715
307,1687
308,1600
309,1568
310,1443
311,1173
312,901
313,673
314,471
315,335
316,239
317,207
318,179
319,194
320,198
321,256
322,265
323,295
324,318
325,363
326,366
327,507
328,761
329,990
330,1233
331,1447
332,1571
333,1650
334,1710
335,1744
336,1771
337,1781
338,1770
339,1750
340,1754
341,1763
342,1799
343,1819
344,1814
345,1743
346,1666
347,1616
348,1398
349,1143
350,907
351,659
352,464
353,331
354,229
355,174
356,168
357,166
358,197
359,224
360,259
361,273
362,320
363,342
364,400
365,490
366,719
367,960
368,1195
369,1407
370,1535
371,1650
372,1706
373,1729
374,1758
375,1757
376,1743
377,1769
378,1814
379,1866
380,1897
381,1888
382,1818
383,1719
384,1658
385,1498
386,1235
387,991
388,751
389,544
390,394
391,306
392,245
393,217
394,227
395,222
396,256
397,212
398,304
399,337
400,314
401,368
402,423
403,567
404,784
405,1021
406,1216
407,1415
408,1535
409,1635
410,1674
411,1707
412,1715
413,1993
414,1767
415,1825
416,1857
417,1875
418,1842
419,1780
420,1708
421,1664
422,1429
423,1183
424,937
425,717
426,500
427,367
428,268
429,222
430,203
431,218
432,239
433,269
434,321
435,329
436,332
437,355
438,416
439,522
440,746
441,967
442,1186
443,1376
444,1533
445,1627
446,1667
447,1687
448,1690
449,1703
450,1724
451,1759
452,1786
453,1799
454,1744
455,1678
456,1631
457,1535
458,1281
459,1047
460,779
461,573
462,389
463,275
464,215
465,191
466,195
467,218
468,240
469,266
470,295
471,318
472,346
473,368
474,429
475,442
476,612
477,842
478,1070
479,1262
480,1438
481,1555
482,1616
483,1689
484,1770
485,1863
486,1951
487,1939
488,1898
489,1819
490,1726
491,1706
492,1583
493,1296
494,1046
495,797
496,613
497,407
498,251
499,239
500,176
501,162
502,176
503,223
504,261
505,320
506,337
507,327
508,418
509,466
510,659
511,854
512,1083
513,1279
514,1456
515,1617
516,1759
517,1868
518,1950
519,1954
520,1918
521,1887
522,1786
523,1715
524,1678
525,1421
526,1168
527,919
528,699
529,551
530,448
531,349
532,339
533,288
534,273
535,297
536,339
537,367
538,391
539,394
540,461
541,453
542,545
543,769
544,1008
545,1261
546,1514
547,1740
548,1857
549,1939
550,1970
551,1925
552,1879
553,1845
554,1724
555,1703
556,1597
557,1330
558,1111
559,897
560,715
561,560
562,450
563,371
564,310
565,276
566,267
567,267
568,295
569,336
570,367
571,385
572,423
573,431
574,496
575,723
576,939
577,1233
578,1483
579,1698
580,1840
581,1932
582,1968
583,1911
584,1917
585,1841
586,1757
587,1742
588,1691
589,1413
590,1190
591,968
592,797
593,622
594,474
595,386
596,294
597,252
598,272
599,213
600,283
601,253
602,339
603,350
604,394
605,427
606,458
607,539
608,736
609,1008
610,1245
611,1501
612,1686
613,1819
614,1904
615,1921
616,1918
617,1840
618,1786
619,1745
620,1744
621,1606
622,1310
623,1088
624,881
625,735
626,558
627,449
628,331
629,259
630,195
631,211
632,224
633,218
634,240
635,231
636,274
637,417
638,448
639,479
640,615
641,944
642,1302
643,1558
644,1710
645,1783
646,1787
647,1782
648,1767
649,1738
650,1712
651,1697
652,1662
653,1429
654,1208
655,960
656,731
657,528
658,378
659,275
660,207
661,141
662,143
663,159
664,154
665,219
666,200
667,252
668,338
669,399
670,440
671,509
672,694
673,1039
674,1369
675,1591
676,1719
677,1744
678,1789
679,1802
680,1713
681,1719
682,1666
683,1686
684,1530
685,1268
686,1056
687,858
688,646
689,531
690,416
691,285
692,215
693,187
694,176
695,144
696,144
697,161
698,202
699,243
700,319
701,405
702,479
703,524
704,625
705,881
706,1170
707,1438
708,1677
709,1808
710,1857
711,1875
712,1858
713,1781
714,1766
715,1759
716,1738
717,1520
718,1229
719,991
720,768
721,562
722,471
723,313
724,230
725,155
726,111
727,95
728,112
729,112
730,176
731,190
732,267
733,333
734,449
735,445
736,573
737,714
738,946
739,1183
740,1343
741,1465
742,1584
743,1675
744,1759
745,1830
746,1839
747,1875
748,1821
749,1785
750,1785
751,1682
752,1414
753,1153
754,879
755,635
756,415
757,265
758,182
759,201
760,50
761,33
762,42
763,25
764,58
765,128
766,165
767,222
768,283
769,426
770,423
771,486
772,677
773,930
774,1152
775,1326
776,1462
777,1488
778,1583
779,1606
780,1638
781,1698
782,1791
783,1778
784,1852
785,1831
786,1825
787,1801
788,1728
789,1471
790,1143
791,752
792,598
793,383
794,183
795,69
796,16
797,32
798,62
799,14
800,145
801,146
802,219
803,243
804,338
805,429
806,434
807,531
808,629
809,823
810,1057
811,1230
812,1388
813,1527
814,1563
815,1616
816,1680
817,1761
818,1792
819,1863
820,1869
821,1754
822,1776
823,1712
824,1667
825,1357
826,1043
827,724
828,509
829,314
830,226
831,144
832,118
833,74
834,112
835,113
836,122
837,181
838,216
839,283
840,304
841,422
842,484
843,526
844,623
845,879
846,1104
847,1289
848,1465
849,1566
850,1709
851,1829
852,1899
853,1934
854,1895
855,1887
856,1829
857,1838
858,1744
859,1433
860,1168
861,927
862,672
863,432
864,342
865,267
866,188
867,185
868,175
869,177
870,176
871,209
872,240
873,293
874,355
875,429
876,485
877,544
878,561
879,752
880,992
881,1189
882,1358
883,1520
884,1680
885,1813
886,1919
887,1990
888,1985
889,1941
890,1853
891,1815
892,1771
893,1622
894,1316
895,1023
896,784
897,578
898,427
899,336
900,275
901,242
902,230
903,218
904,221
905,242
906,257
907,306
908,343
909,413
910,473
911,469
912,542
913,661
914,898
915,1116
916,1302
917,1483
918,1655
919,1807
920,1920
921,1962
922,1968
923,1937
924,1866
925,1790
926,1781
927,1658
928,1346
929,1080
930,829
931,614
932,462
933,361
934,301
935,267
936,271
937,240
938,259
939,276
940,293
941,337
942,403
943,462
944,496
945,527
946,592
947,720
948,963
949,1184
950,1363
951,1569
952,1723
953,1849
954,1945
955,1962
956,1957
957,1905
958,1819
959,1760
960,1741
961,1497
962,1213
963,963
964,710
965,544
966,384
967,323
968,289
969,267
970,230
971,238
972,238
973,272
974,308
975,346
976,423
977,451
978,501
979,511
980,618
981,832
982,1090
983,1351
984,1635
985,1791
986,1916
987,1962
988,1962
989,1931
990,1854
991,1792
992,1791
993,1756
994,1521
995,1264
996,1008
997,775
998,592
999,472
1000,371
1001,336
1002,271
1003,249
1004,234
1005,268
1006,300
1007,299
1008,363
1009,417
1010,468
1011,456
1012,526
1013,656
1014,899
1015,1158
1016,1455
1017,1695
1018,1845
1019,1942
1020,1953
1021,1941
1022,1878
1023,1803
1024,1760
1025,1693
1026,1651
1027,1391
1028,1120
1029,843
1030,646
1031,466
1032,375
1033,294
1034,240
1035,218
1036,198
1037,224
1038,237
1039,262
1040,305
1041,381
1042,432
1043,479
1044,529
1045,577
1046,779
1047,1011
1048,1250
1049,1424
1050,1632
1051,1789
1052,1903
1053,1966
1054,1968
1055,1937
1056,1875
1057,1775
1058,1719
1059,1722
1060,1465
1061,1184
1062,903
1063,659
1064,483
1065,362
1066,291
1067,242
1068,228
1069,208
1070,238
1071,240
1072,284
1073,317
1074,383
1075,435
1076,445
1077,491
1078,556
1079,752
1080,983
1081,1210
1082,1382
1083,1535
1084,1693
1085,1800
1086,1893
1087,1939
1088,1936
1089,1903
1090,1830
1091,1753
1092,1717
1093,1644
1094,1493
1095,1042
1096,765
1097,540
1098,394
1099,307
1100,257
1101,210
1102,192
1103,207
1104,223
1105,246
1106,284
1107,327
1108,401
1109,399
1110,445
1111,528
1112,669
1113,911
1114,1133
1115,1351
1116,1506
1117,1649
1118,1774
1119,1888
1120,1946
1121,1972
1122,1959
1123,1906
1124,1819
1125,1744
1126,1664
1127,1535
1128,1279
1129,965
1130,709
1131,495
1132,382
1133,318
1134,240
1135,177
1136,208
1137,222
1138,263
1139,249
1140,331
1141,337
1142,368
1143,405
1144,453
1145,511
1146,669
1147,912
1148,1040
1149,1375
1150,1535
1151,1691
1152,1803
1153,1780
1154,2000
1155,2064
1156,2074
1157,2016
1158,1926
1159,1797
1160,1732
1161,1677
1162,1455
1163,1153
1164,855
1165,615
1166,435
1167,368
1168,261
1169,251
1170,221
1171,214
1172,221
1173,303
1174,326
1175,357
1176,383
1177,372
1178,415
1179,455
1180,526
1181,661
1182,941
1183,1193
1184,1394
1185,1561
1186,1687
1187,1811
1188,1936
1189,2018
1190,2072
1191,2097
1192,2042
1193,1971
1194,1863
1195,1757
1196,1712
1197,1535
1198,1273
1199,928
1200,694
1201,526
1202,406
1203,304
1204,303
1205,318
1206,285
1207,282
1208,309
1209,324
1210,348
1211,416
1212,352
1213,422
1214,506
1215,622
1216,866
1217,1122
1218,1338
1219,1523
1220,1732
1221,1856
1222,1983
1223,2064
1224,2110
1225,2119
1226,2072
1227,1995
1228,1939
1229,1798
1230,1699
1231,1597
1232,1298
1233,1055
1234,790
1235,610
1236,478
1237,383
1238,349
1239,335
1240,343
1241,333
1242,323
1243,352
1244,363
1245,409
1246,463
1247,450
1248,524
1249,679
1250,937
1251,1215
1252,1485
1253,1744
1254,1927
1255,2032
1256,2096
1257,2107
1258,2037
1259,2004
1260,1938
1261,1839
1262,1721
1263,1683
1264,1421
1265,1163
1266,897
1267,689
1268,592
1269,422
1270,381
1271,335
1272,310
1273,222
1274,325
1275,313
1276,400
1277,387
1278,387
1279,392
1280,447
1281,502
1282,631
1283,917
1284,1199
1285,1583
1286,1805
1287,1982
1288,2083
1289,2100
1290,1996
1291,2023
1292,1985
1293,1904
1294,1799
1295,1726
1296,1616
1297,1369
1298,1092
1299,869
1300,730
1301,549
1302,457
1303,378
1304,264
1305,318
1306,304
1307,331
1308,318
1309,362
1310,368
1311,346
1312,391
1313,491
1314,511
1315,682
1316,933
1317,1168
1318,1414
1319,1681
1320,1889
1321,2006
1322,2097
1323,2115
1324,2105
1325,2043
1326,1947
1327,1863
1328,1768
1329,1651
1330,1462
1331,1154
1332,912
1333,706
1334,533
1335,427
1336,369
1337,309
1338,290
1339,243
1340,272
1341,285
1342,306
1343,337
1344,346
1345,373
1346,464
1347,449
1348,542
1349,769
1350,1070
1351,1289
1352,1497
1353,1634
1354,1747
1355,1769
1356,1846
1357,2003
1358,2035
1359,2067
1360,2047
1361,1990
1362,1903
1363,1799
1364,1728
1365,1574
1366,1277
1367,993
1368,720
1369,507
1370,370
1371,288
1372,246
1373,248
1374,242
1375,250
1376,272
1377,310
1378,351
1379,392
1380,432
1381,479
1382,527
1383,592
1384,852
1385,1119
1386,1357
1387,1555
1388,1680
1389,1746
1390,1799
1391,1858
1392,1904
1393,1962
1394,2010
1395,2010
1396,1968
1397,1904
1398,1795
1399,1744
1400,1617
1401,1296
1402,987
1403,720
1404,477
1405,339
1406,257
1407,228
1408,210
1409,223
1410,240
1411,264
1412,289
1413,342
1414,415
1415,407
1416,439
1417,493
1418,549
1419,785
1420,1055
1421,1299
1422,1504
1423,1671
1424,1802
1425,1911
1426,2007
1427,2074
1428,2064
1429,2009
1430,1947
1431,1853
1432,1776
1433,1741
1434,1456
1435,1171
1436,895
1437,657
1438,465
1439,366
1440,276
1441,222
1442,210
1443,221
1444,236
1445,252
1446,290
1447,331
1448,381
1449,415
1450,464
1451,489
1452,551
1453,807
1454,1076
1455,1305
1456,1531
1457,1726
1458,1857
1459,1999
1460,2075
1461,2097
1462,2078
1463,2033
1464,1936
1465,1843
1466,1801
1467,1617
1468,1330
1469,1069
1470,843
1471,620
1472,463
1473,354
1474,307
1475,262
1476,262
1477,285
1478,306
1479,348
1480,387
1481,445
1482,464
1483,495
1484,569
1485,777
1486,1003
1487,1232
1488,1421
1489,1607
1490,1730
1491,1864
1492,1950
1493,2002
1494,2007
1495,1977
1496,1915
1497,1819
1498,1763
1499,1648
1500,1337
1501,1074
1502,815
1503,594
1504,432
1505,326
1506,262
1507,240
1508,252
1509,272
1510,304
1511,355
1512,400
1513,443
1514,473
1515,509
1516,570
1517,886
1518,993
1519,1207
1520,1424
1521,1612
1522,1761
1523,1886
1524,1941
1525,1963
1526,1955
1527,1883
1528,1783
1529,1779
1530,1653
1531,1366
1532,1104
1533,847
1534,623
1535,447
1536,338
1537,263
1538,245
1539,229
1540,245
1541,263
1542,314
1543,391
1544,409
1545,447
1546,445
1547,544
1548,644
1549,837
1550,1105
1551,1319
1552,1533
1553,1679
1554,1847
1555,1934
1556,2010
1557,1921
1558,1924
1559,1857
1560,1827
1561,1761
1562,1505
1563,1197
1564,955
1565,696
1566,489
1567,353
1568,258
1569,262
1570,178
1571,144
1572,148
1573,206
1574,259
1575,324
1576,390
1577,455
1578,528
1579,593
1580,655
1581,885
1582,1106
1583,1337
1584,1501
1585,1648
1586,1734
1587,1842
1588,1914
1589,1916
1590,1911
1591,1830
1592,1811
1593,1759
1594,1472
1595,1187
1596,931
1597,614
1598,392
1599,232
1600,99
1601,74
1602,17
1603,55
1604,49
1605,106
1606,156
1607,267
1608,313
1609,390
1610,661
1611,590
1612,679
1613,836
1614,1074
1615,1232
1616,1415
1617,1503
1618,1567
1619,1616
1620,1631
1621,1705
1622,1737
1623,1761
1624,1857
1625,1818
1626,1762
1627,1598
1628,1274
1629,976
1630,648
1631,341
1632,123
1633,31
1634,0
1635,0
1636,0
1637,0
1638,2
1639,61
1640,131
1641,231
1642,294
1643,387
1644,533
1645,626
1646,726
1647,830
1648,1072
1649,1247
1650,1407
1651,1488
1652,1535
1653,1559
1654,1658
1655,1708
1656,1726
1657,1727
1658,1741
1659,1739
1660,1665
1661,1632
1662,1347
1663,1040
1664,711
1665,378
1666,157
1667,9
1668,0
1669,0
1670,0
1671,0
1672,0
1673,1
1674,80
1675,164
1676,293
1677,415
1678,551
1679,614
1680,720
1681,876
1682,1089
1683,1280
1684,1403
1685,1535
1686,1535
1687,1579
1688,1649
1689,1668
1690,1716
1691,1711
1692,1740
1693,1743
1694,1753
1695,1571
1696,1328
1697,1019
1698,643
1699,347
1700,96
1701,0
1702,0
1703,0
1704,0
1705,0
1706,11
1707,16
1708,52
1709,153
1710,249
1711,336
1712,429
1713,505
1714,586
1715,714
1716,751
1717,1159
1718,1335
1719,1535
1720,1574
1721,1617
1722,1630
1723,1639
1724,1680
1725,1782
1726,1746
1727,1795
1728,1803
1729,1790
1730,1611
1731,1340
1732,987
1733,646
1734,326
1735,145
1736,86
1737,0
1738,0
1739,0
1740,0
1741,33
1742,101
1743,153
1744,273
1745,377
1746,455
1747,530
1748,640
1749,806
1750,1047
1751,1254
1752,1441
1753,1557
1754,1629
1755,1651
1756,1647
1757,1675
1758,1679
1759,1677
1760,1648
1761,1663
1762,1687
1763,1693
1764,1669
1765,1631
1766,1360
1767,1037
1768,716
1769,445
1770,260
1771,141
1772,65
1773,30
1774,39
1775,58
1776,89
1777,154
1778,229
1779,329
1780,444
1781,464
1782,605
1783,654
1784,825
1785,1021
1786,1189
1787,1355
1788,1469
1789,1535
1790,1583
1791,1632
1792,1614
1793,1599
1794,1621
1795,1584
1796,1599
1797,1561
1798,1535
1799,1565
1800,1523
1801,1483
1802,1223
1803,944
1804,677
1805,477
1806,322
1807,256
1808,159
1809,160
1810,175
1811,243
1812,291
1813,400
1814,483
1815,543
1816,614
1817,698
1818,883
1819,1113
1820,1287
1821,1455
1822,1563
1823,1636
1824,1683
1825,1687
1826,1662
1827,1639
1828,1633
1829,1648
1830,1535
1831,1459
1832,1339
1833,1232
1834,1123
1835,1008
1836,842
1837,739
1838,592
1839,504
1840,409
1841,341
1842,345
1843,346
1844,368
1845,415
1846,509
1847,565
1848,623
1849,667
1850,912
1851,1152
1852,1365
1853,1518
1854,1646
1855,1722
1856,1755
1857,1744
1858,1738
1859,1702
1860,1683
1861,1631
1862,1601
1863,1377
1864,1123
1865,883
1866,818
1867,739
1868,750
1869,722
1870,720
1871,693
1872,687
1873,635
1874,611
1875,610
1876,592
1877,629
1878,655
1879,654
1880,691
1881,729
1882,893
1883,1121
1884,1343
1885,1531
1886,1649
1887,1717
1888,1745
1889,1750
1890,1718
1891,1680
1892,1641
1893,1654
1894,1563
1895,1307
1896,1023
1897,768
1898,578
1899,467
1900,438
1901,458
1902,562
1903,577
1904,655
1905,682
1906,797
1907,989
1908,1163
1909,1296
1910,1413
1911,1487
1912,1531
1913,1554
1914,1527
1915,1526
1916,1511
1917,1490
1918,1499
1919,1376
1920,1104
1921,844
1922,649
1923,490
1924,368
1925,318
1926,288
1927,256
1928,273
1929,309
1930,373
1931,439
1932,419
1933,542
1934,567
1935,784
1936,1125
1937,1488
1938,1815
1939,2000
1940,2102
1941,2119
1942,2148
1943,2070
1944,1999
1945,1845
1946,1777
1947,1691
1948,1482
1949,1238
1950,979
1951,816
1952,651
1953,507
1954,455
1955,412
1956,374
1957,290
1958,419
1959,433
1960,394
1961,511
1962,473
1963,560
1964,718
1965,927
1966,1211
1967,1386
1968,1584
1969,1715
1970,1830
1971,1846
1972,2031
1973,2106
1974,2161
1975,2145
1976,2096
1977,2001
1978,1862
1979,1794
1980,1617
1981,1338
1982,1091
1983,793
1984,604
1985,464
1986,398
1987,368
1988,353
1989,422
1990,334
1991,380
1992,361
1993,400
1994,468
1995,588
1996,784
1997,983
1998,1231
1999,1453
2000,1633
2001,1774
2002,1854
2003,1895
2004,1893
2005,1922
2006,1888
2007,1945
2008,1919
2009,1968
2010,2000
2011,1999
2012,1904
2013,1786
2014,1658
2015,1481
2016,1282
2017,985
2018,736
2019,573
2020,422
2021,400
2022,391
2023,347
2024,373
2025,291
2026,322
2027,326
2028,414
2029,528
2030,655
2031,865
2032,1093
2033,1331
2034,1523
2035,1713
2036,1808
2037,1891
2038,1923
2039,1934
2040,1925
2041,1867
2042,1807
2043,1697
2044,1609
2045,1516
2046,1459
2047,1443
2048,1335
2049,1281
2050,1217
2051,1111
2052,931
2053,816
2054,571
2055,560
2056,481
2057,442
2058,436
2059,375
2060,390
2061,448
2062,562
2063,752
2064,983
2065,1225
2066,1432
2067,1639
2068,1794
2069,1894
2070,1936
2071,1974
2072,1932
2073,1914
2074,1866
2075,1739
2076,1643
2077,1514
2078,1441
2079,1232
2080,998
2081,913
2082,784
2083,673
2084,687
2085,679
2086,691
2087,702
2088,693
2089,715
2090,720
2091,736
2092,784
2093,829
2094,839
2095,896
2096,1020
2097,1085
2098,1196
2099,1356
2100,1560
2101,1635
2102,1716
2103,1728
2104,1733
2105,1710
2106,1695
2107,1674
2108,1558
2109,1570
2110,1493
2111,1184
2112,927
2113,658
2114,486
2115,455
2116,437
2117,362
2118,386
2119,389
2120,428
2121,573
2122,838
2123,1203
2124,1490
2125,1661
2126,1777
2127,1858
2128,1917
2129,1878
2130,1884
2131,1838
2132,1801
2133,1666
2134,1535
2135,1488
2136,1386
2137,1213
2138,943
2139,758
2140,632
2141,581
2142,468
2143,462
2144,398
2145,431
2146,403
2147,403
2148,464
2149,483
2150,590
2151,795
2152,1037
2153,1298
2154,1569
2155,1808
2156,1988
2157,2114
2158,2199
2159,2207
2160,2191
2161,2142
2162,2041
2163,1913
2164,1791
2165,1663
2166,1408
2167,1168
2168,944
2169,746
2170,593
2171,497
2172,464
2173,441
2174,402
2175,420
2176,417
2177,432
2178,399
2179,444
2180,493
2181,547
2182,755
2183,996
2184,1246
2185,1455
2186,1618
2187,1739
2188,1829
2189,1921
2190,2010
2191,2098
2192,2114
2193,2090
2194,1986
2195,1870
2196,1766
2197,1649
2198,1376
2199,1136
2200,866
2201,661
2202,496
2203,392
2204,329
2205,335
2206,309
2207,331
2208,359
2209,384
2210,421
2211,458
2212,490
2213,553
2214,784
2215,1037
2216,1281
2217,1475
2218,1631
2219,1745
2220,1802
2221,1823
2222,1834
2223,1865
2224,1909
2225,1959
2226,1991
2227,1998
2228,1916
2229,1824
2230,1764
2231,1631
2232,1323
2233,1056
2234,768
2235,550
2236,368
2237,273
2238,213
2239,227
2240,212
2241,243
2242,304
2243,340
2244,391
2245,386
2246,484
2247,529
2248,725
2249,998
2250,1232
2251,1451
2252,1613
2253,1705
2254,1756
2255,1780
2256,1792
2257,1789
2258,1791
2259,1797
2260,1827
2261,1845
2262,1824
2263,1766
2264,1699
2265,1643
2266,1377
2267,1105
2268,801
2269,554
2270,359
2271,251
2272,202
2273,160
2274,167
2275,208
2276,243
2277,331
2278,362
2279,368
2280,421
2281,497
2282,720
2283,979
2284,1228
2285,1433
2286,1584
2287,1685
2288,1744
2289,1787
2290,1799
2291,1776
2292,1758
2293,1695
2294,1663
2295,1687
2296,1677
2297,1669
2298,1628
2299,1569
2300,1575
2301,1250
2302,931
2303,654
2304,459
2305,294
2306,197
2307,162
2308,141
2309,157
2310,207
2311,280
2312,339
2313,364
2314,400
2315,487
2316,583
2317,812
2318,1040
2319,1283
2320,1473
2321,1590
2322,1664
2323,1713
2324,1743
2325,1735
2326,1707
2327,1651
2328,1605
2329,1565
2330,1526
2331,1374
2332,1223
2333,1081
2334,870
2335,703
2336,529
2337,393
2338,304
2339,262
2340,218
2341,195
2342,211
2343,253
2344,333
2345,390
2346,390
2347,502
2348,623
2349,891
2350,1136
2351,1360
2352,1535
2353,1644
2354,1696
2355,1700
2356,1713
2357,1696
2358,1643
2359,1673
2360,1605
2361,1424
2362,1134
2363,820
2364,583
2365,410
2366,303
2367,251
2368,322
2369,341
2370,416
2371,479
2372,526
2373,570
2374,623
2375,643
2376,702
2377,728
2378,846
2379,983
2380,1094
2381,1217
2382,1398
2383,1433
2384,1520
2385,1559
2386,1514
2387,1561
2388,1525
2389,1515
2390,1261
2391,962
2392,660
2393,417
2394,271
2395,143
2396,91
2397,31
2398,36
2399,33
2400,60
2401,119
2402,231
2403,295
2404,402
2405,464
2406,607
2407,1008
2408,1358
2409,1590
2410,1726
2411,1774
2412,1806
2413,1787
2414,1740
2415,1753
2416,1707
2417,1719
2418,1526
2419,1247
2420,937
2421,693
2422,432
2423,281
2424,149
2425,87
2426,51
2427,11
2428,64
2429,18
2430,78
2431,80
2432,221
2433,295
2434,410
2435,510
2436,566
2437,790
2438,1038
2439,1223
2440,1431
2441,1488
2442,1575
2443,1626
2444,1696
2445,1733
2446,1797
2447,1786
2448,1789
2449,1779
2450,1632
2451,1277
2452,968
2453,592
2454,368
2455,144
2456,27
2457,0
2458,16
2459,0
2460,0
2461,0
2462,50
2463,68
2464,225
2465,336
2466,438
2467,534
2468,636
2469,718
2470,949
2471,1136
2472,1298
2473,1410
2474,1535
2475,1503
2476,1535
2477,1605
2478,1616
2479,1599
2480,1525
2481,1424
2482,1300
2483,1151
2484,974
2485,765
2486,573
2487,386
2488,115
2489,146
2490,57
2491,0
2492,26
2493,1
2494,63
2495,102
2496,182
2497,304
2498,432
2499,529
2500,623
2501,784
2502,1073
2503,1168
2504,1296
2505,1400
2506,1479
2507,1488
2508,1599
2509,1535
2510,1577
2511,1571
2512,1472
2513,1227
2514,1109
2515,624
2516,432
2517,319
2518,191
2519,164
2520,132
2521,293
2522,266
2523,386
2524,445
2525,500
2526,542
2527,557
2528,751
2529,768
2530,817
2531,814
2532,886
2533,1048
2534,1161
2535,1232
2536,1360
2537,1391
2538,1418
2539,1495
2540,1351
2541,1463
2542,1309
2543,1010
2544,705
2545,432
2546,252
2547,162
2548,80
2549,0
2550,1
2551,0
2552,91
2553,193
2554,203
2555,337
2556,436
2557,566
2558,798
2559,1096
2560,1301
2561,1458
2562,1535
2563,1571
2564,1616
2565,1600
2566,1619
2567,1643
2568,1556
2569,1381
2570,1131
2571,820
2572,654
2573,427
2574,348
2575,171
2576,144
2577,98
2578,48
2579,58
2580,80
2581,124
2582,180
2583,288
2584,377
2585,511
2586,591
2587,658
2588,784
2589,1008
2590,1242
2591,1483
2592,1683
2593,1766
2594,1793
2595,1790
2596,1766
2597,1738
2598,1719
2599,1648
2600,1418
2601,1114
2602,772
2603,527
2604,336
2605,234
2606,128
2607,99
2608,73
2609,83
2610,106
2611,135
2612,184
2613,240
2614,336
2615,431
2616,534
2617,593
2618,674
2619,816
2620,976
2621,1178
2622,1313
2623,1409
2624,1476
2625,1535
2626,1603
2627,1674
2628,1431
2629,1744
2630,1717
2631,1706
2632,1653
2633,1521
2634,1187
2635,848
2636,551
2637,336
2638,203
2639,114
2640,51
2641,37
2642,48
2643,75
2644,112
2645,189
2646,219
2647,333
2648,416
2649,477
2650,526
2651,636
2652,830
2653,1011
2654,1189
2655,1322
2656,1426
2657,1478
2658,1515
2659,1519
2660,1519
2661,1509
2662,1482
2663,1482
2664,1413
2665,1366
2666,1362
2667,1205
2668,989
2669,745
2670,545
2671,396
2672,257
2673,176
2674,144
2675,122
2676,144
2677,151
2678,231
2679,321
2680,399
2681,450
2682,525
2683,611
2684,798
2685,990
2686,1194
2687,1333
2688,1441
2689,1509
2690,1535
2691,1571
2692,1535
2693,1478
2694,1492
2695,1463
2696,1392
2697,1137
2698,860
2699,689
2700,590
2701,550
2702,495
2703,460
2704,427
2705,400
2706,361
2707,336
2708,387
2709,374
2710,410
2711,475
2712,509
2713,511
2714,576
2715,689
2716,908
2717,1120
2718,1303
2719,1441
2720,1533
2721,1591
2722,1616
2723,1597
2724,1535
2725,1554
2726,1510
2727,1454
2728,1232
2729,917
2730,688
2731,481
2732,364
2733,272
2734,192
2735,227
2736,320
2737,410
2738,451
2739,534
2740,560
2741,705
2742,909
2743,1093
2744,1211
2745,1330
2746,1392
2747,1449
2748,1450
2749,1466
2750,1445
2751,1453
2752,1405
2753,1392
2754,1190
2755,912
2756,671
2757,498
2758,353
2759,272
2760,194
2761,176
2762,189
2763,199
2764,239
2765,272
2766,339
2767,365
2768,446
2769,480
2770,560
2771,767
2772,989
2773,1202
2774,1441
2775,1671
2776,1846
2777,1917
2778,1936
2779,1938
2780,1880
2781,1782
2782,1699
2783,1670
2784,1503
2785,1183
2786,881
2787,606
2788,432
2789,323
2790,234
2791,189
2792,176
2793,172
2794,189
2795,219
2796,319
2797,353
2798,350
2799,410
2800,474
2801,531
2802,709
2803,901
2804,1136
2805,1327
2806,1488
2807,1584
2808,1631
2809,1705
2810,1683
2811,1707
2812,1726
2813,1771
2814,1772
2815,1750
2816,1683
2817,1583
2818,1505
2819,1296
2820,939
2821,661
2822,469
2823,336
2824,238
2825,170
2826,207
2827,200
2828,212
2829,260
2830,284
2831,288
2832,335
2833,374
2834,453
2835,569
2836,791
2837,1013
2838,1222
2839,1381
2840,1558
2841,1659
2842,1702
2843,1731
2844,1744
2845,1725
2846,1687
2847,1573
2848,1463
2849,1387
2850,1259
2851,1199
2852,1054
2853,942
2854,801
2855,656
2856,592
2857,492
2858,432
2859,432
2860,413
2861,391
2862,320
2863,358
2864,366
2865,437
2866,511
2867,709
2868,945
2869,1175
2870,1398
2871,1567
2872,1707
2873,1776
2874,1818
2875,1830
2876,1813
2877,1793
2878,1697
2879,1554
2880,1419
2881,1327
2882,1114
2883,834
2884,660
2885,541
2886,440
2887,411
2888,373
2889,405
2890,341
2891,394
2892,526
2893,755
2894,992
2895,1184
2896,1392
2897,1575
2898,1638
2899,1719
2900,1744
2901,1740
2902,1702
2903,1645
2904,1597
2905,1474
2906,1338
2907,1227
2908,1106
2909,865
2910,688
2911,563
2912,479
2913,432
2914,362
2915,336
2916,282
2917,326
2918,283
2919,310
2920,368
2921,464
2922,595
2923,785
2924,1053
2925,1296
2926,1518
2927,1831
2928,1952
2929,2071
2930,2119
2931,2000
2932,2009
2933,2041
2934,1840
2935,1734
2936,1603
2937,1432
2938,1205
2939,922
2940,721
2941,564
2942,464
2943,432
2944,390
2945,336
2946,295
2947,336
2948,224
2949,342
2950,344
2951,337
2952,385
2953,623
2954,757
2955,943
2956,1206
2957,1362
2958,1488
2959,1661
2960,1746
2961,1844
2962,1863
2963,1974
2964,2014
2965,2019
2966,2007
2967,1908
2968,1769
2969,1586
2970,1526
2971,1260
2972,961
2973,679
2974,510
2975,395
2976,329
2977,256
2978,298
2979,282
2980,245
2981,319
2982,255
2983,330
2984,142
2985,336
2986,511
2987,692
2988,877
2989,1113
2990,1291
2991,1491
2992,1629
2993,1701
2994,1746
2995,1771
2996,1763
2997,1777
2998,1691
2999,1797
3000,1809
3001,1800
3002,1737
3003,1615
3004,1557
3005,1424
3006,1107
3007,794
3008,578
3009,375
3010,274
3011,207
3012,199
3013,193
3014,231
3015,238
3016,276
3017,295
3018,331
3019,355
3020,422
3021,546
3022,752
3023,946
3024,1082
3025,1360
3026,1486
3027,1609
3028,1696
3029,1713
3030,1721
3031,1697
3032,1617
3033,1570
3034,1486
3035,1475
3036,1427
3037,1399
3038,1326
3039,1209
3040,1019
3041,781
3042,599
3043,432
3044,322
3045,271
3046,240
3047,236
3048,256
3049,303
3050,352
3051,354
3052,358
3053,449
3054,595
3055,841
3056,1040
3057,1219
3058,1415
3059,1535
3060,1631
3061,1680
3062,1694
3063,1695
3064,1629
3065,1583
3066,1497
3067,1477
3068,1378
3069,1153
3070,993
3071,874
3072,779
3073,653
3074,569
3075,503
3076,416
3077,369
3078,368
3079,335
3080,350
3081,373
3082,370
3083,432
3084,461
3085,478
3086,668
3087,893
3088,1143
3089,1363
3090,1513
3091,1617
3092,1681
3093,1705
3094,1712
3095,1689
3096,1643
3097,1567
3098,1522
3099,1456
3100,1193
3101,901
3102,642
3103,464
3104,342
3105,319
3106,334
3107,399
3108,467
3109,467
3110,465
3111,570
3112,577
3113,672
3114,703
3115,843
3116,972
3117,1109
3118,1249
3119,1360
3120,1456
3121,1495
3122,1525
3123,1529
3124,1487
3125,1465
3126,1369
3127,1339
3128,1097
3129,800
3130,551
3131,373
3132,262
3133,192
3134,166
3135,136
3136,144
3137,151
3138,226
3139,258
3140,349
3141,339
3142,434
3143,555
3144,915
3145,1265
3146,1571
3147,1743
3148,1808
3149,1847
3150,1840
3151,1815
3152,1757
3153,1695
3154,1628
3155,1607
3156,1397
3157,1155
3158,880
3159,631
3160,448
3161,306
3162,212
3163,149
3164,128
3165,133
3166,131
3167,159
3168,212
3169,289
3170,358
3171,359
3172,417
3173,457
3174,626
3175,880
3176,1090
3177,1293
3178,1456
3179,1598
3180,1648
3181,1724
3182,1798
3183,1856
3184,1874
3185,1860
3186,1787
3187,1721
3188,1615
3189,1511
3190,1229
3191,863
3192,562
3193,336
3194,204
3195,97
3196,40
3197,39
3198,31
3199,66
3200,88
3201,138
3202,208
3203,274
3204,349
3205,418
3206,428
3207,509
3208,730
3209,924
3210,1141
3211,1296
3212,1433
3213,1517
3214,1450
3215,1583
3216,1585
3217,1584
3218,1558
3219,1499
3220,1469
3221,1437
3222,1415
3223,1317
3224,1101
3225,847
3226,592
3227,400
3228,225
3229,133
3230,50
3231,0
3232,0
3233,27
3234,48
3235,115
3236,201
3237,301
3238,360
3239,489
3240,594
3241,687
3242,885
3243,1127
3244,1269
3245,1381
3246,1356
3247,1472
3248,1521
3249,1563
3250,1535
3251,1497
3252,1480
3253,1313
3254,1141
3255,734
3256,457
3257,270
3258,177
3259,115
3260,152
3261,194
3262,288
3263,342
3264,417
3265,430
3266,542
3267,611
3268,698
3269,755
3270,811
3271,633
3272,991
3273,1072
3274,1167
3275,1269
3276,1349
3277,1443
3278,1438
3279,1438
3280,1504
3281,1366
3282,1142
3283,833
3284,489
3285,276
3286,99
3287,0
3288,0
3289,0
3290,0
3291,0
3292,0
3293,6
3294,93
3295,151
3296,287
3297,417
3298,531
3299,727
3300,1116
3301,1421
3302,1627
3303,1698
3304,1617
3305,1703
3306,1734
3307,1703
3308,1731
3309,1598
3310,1488
3311,1227
3312,863
3313,576
3314,323
3315,254
3316,304
3317,65
3318,0
3319,0
3320,0
3321,0
3322,35
3323,81
3324,133
3325,177
3326,252
3327,432
3328,546
3329,625
3330,725
3331,951
3332,1130
3333,1300
3334,1489
3335,1643
3336,1697
3337,1789
3338,1803
3339,1801
3340,1847
3341,1741
3342,1675
3343,1441
3344,1075
3345,746
3346,461
3347,256
3348,135
3349,0
3350,0
3351,0
3352,0
3353,0
3354,0
3355,0
3356,63
3357,146
3358,227
3359,239
3360,427
3361,543
3362,592
3363,714
3364,966
3365,1060
3366,1270
3367,1370
3368,1455
3369,1456
3370,1517
3371,1605
3372,1558
3373,1590
3374,1642
3375,1574
3376,1653
3377,1645
3378,1563
3379,1303
3380,906
3381,595
3382,291
3383,112
3384,0
3385,0
3386,0
3387,0
3388,0
3389,0
3390,0
3391,23
3392,105
3393,208
3394,327
3395,398
3396,448
3397,599
3398,755
3399,988
3400,1168
3401,1298
3402,1401
3403,1469
3404,1499
3405,1535
3406,1531
3407,1535
3408,1535
3409,1526
3410,1517
3411,1535
3412,1535
3413,1502
3414,1313
3415,976
3416,665
3417,405
3418,221
3419,95
3420,16
3421,0
3422,0
3423,0
3424,0
3425,54
3426,105
3427,185
3428,271
3429,327
3430,400
3431,485
3432,656
3433,865
3434,1071
3435,1247
3436,1388
3437,1482
3438,1535
3439,1560
3440,1606
3441,1616
3442,1657
3443,1689
3444,1680
3445,1639
3446,1621
3447,1535
3448,1236
3449,857
3450,535
3451,310
3452,142
3453,64
3454,16
3455,0
3456,0
3457,0
3458,32
3459,102
3460,167
3461,247
3462,335
3463,401
3464,446
3465,524
3466,727
3467,959
3468,1136
3469,1302
3470,1424
3471,1528
3472,1569
3473,1606
3474,1617
3475,1649
3476,1706
3477,1735
3478,1739
3479,1697
3480,1661
3481,1630
3482,1424
3483,1062
3484,739
3485,468
3486,287
3487,157
3488,55
3489,16
3490,17
3491,16
3492,36
3493,80
3494,154
3495,211
3496,304
3497,350
3498,414
3499,464
3500,633
3501,848
3502,1083
3503,1243
3504,1396
3505,1494
3506,1573
3507,1616
3508,1639
3509,1689
3510,1758
3511,1823
3512,1823
3513,1785
3514,1706
3515,1657
3516,1594
3517,1266
3518,905
3519,598
3520,397
3521,225
3522,131
3523,76
3524,46
3525,58
3526,66
3527,123
3528,155
3529,221
3530,302
3531,343
3532,355
3533,430
3534,591
3535,806
3536,1019
3537,1231
3538,1379
3539,1520
3540,1584
3541,1637
3542,1665
3543,1668
3544,1667
3545,1695
3546,1730
3547,1731
3548,1701
3549,1658
3550,1625
3551,1516
3552,1180
3553,848
3554,566
3555,371
3556,223
3557,151
3558,91
3559,76
3560,78
3561,112
3562,155
3563,226
3564,291
3565,352
3566,352
3567,423
3568,511
3569,731
3570,945
3571,1152
3572,1298
3573,1446
3574,1534
3575,1596
3576,1615
3577,1627
3578,1638
3579,1679
3580,1725
3581,1760
3582,1748
3583,1663
3584,1609
3585,1584
3586,1341
3587,1034
3588,720
3589,485
3590,336
3591,241
3592,193
3593,135
3594,149
3595,174
3596,261
3597,231
3598,282
3599,348
3600,342
3601,405
3602,506
3603,687
3604,887
3605,1088
3606,1308
3607,1461
3608,1602
3609,1647
3610,1714
3611,1685
3612,1729
3613,1773
3614,1856
3615,1863
3616,1842
3617,1813
3618,1691
3619,1573
3620,1457
3621,1131
3622,862
3623,496
3624,401
3625,320
3626,285
3627,211
3628,221
3629,249
3630,282
3631,238
3632,282
3633,285
3634,429
3635,398
3636,528
3637,722
3638,918
3639,1168
3640,1359
3641,1495
3642,1651
3643,1734
3644,1747
3645,1802
3646,1731
3647,1791
3648,1776
3649,1830
3650,1835
3651,1827
3652,1747
3653,1603
3654,1503
3655,1397
3656,1088
3657,795
3658,590
3659,430
3660,342
3661,272
3662,262
3663,293
3664,258
3665,240
3666,219
3667,295
3668,333
3669,439
3670,526
3671,694
3672,893
3673,1111
3674,1318
3675,1504
3676,1658
3677,1750
3678,1793
3679,1846
3680,1814
3681,1822
3682,1754
3683,1671
3684,1673
3685,1731
3686,1655
3687,1629
3688,1522
3689,1242
3690,1235
3691,1057
3692,816
3693,624
3694,496
3695,387
3696,357
3697,336
3698,268
3699,306
3700,272
3701,273
3702,323
3703,368
3704,476
3705,626
3706,795
3707,1052
3708,1256
3709,1483
3710,1535
3711,1660
3712,1798
3713,1866
3714,1856
3715,1839
3716,1791
3717,1745
3718,1655
3719,1573
3720,1437
3721,1372
3722,1309
3723,1184
3724,1104
3725,1003
3726,847
3727,683
3728,621
3729,527
3730,465
3731,416
3732,341
3733,428
3734,368
3735,376
3736,391
3737,557
3738,757
3739,1014
3740,1250
3741,1453
3742,1604
3743,1714
3744,1823
3745,1837
3746,1803
3747,1810
3748,1775
3749,1714
3750,1529
3751,1506
3752,1409
3753,1265
3754,991
3755,759
3756,659
3757,579
3758,657
3759,551
3760,546
3761,575
3762,560
3763,634
3764,727
3765,832
3766,945
3767,1099
3768,1206
3769,1327
3770,1455
3771,1535
3772,1615
3773,1648
3774,1661
3775,1648
3776,1629
3777,1509
3778,1451
3779,1377
3780,1198
3781,934
3782,713
3783,560
3784,448
3785,374
3786,321
3787,304
3788,315
3789,339
3790,361
3791,358
3792,349
3793,430
3794,640
3795,991
3796,1328
3797,1626
3798,1786
3799,1867
3800,1903
3801,1890
3802,1883
3803,1844
3804,1763
3805,1653
3806,1618
3807,1523
3808,1332
3809,1079
3810,848
3811,672
3812,539
3813,446
3814,368
3815,321
3816,306
3817,311
3818,349
3819,368
3820,368
3821,427
3822,431
3823,477
3824,624
3825,848
3826,1072
3827,1280
3828,1471
3829,1630
3830,1755
3831,1881
3832,1975
3833,2006
3834,2023
3835,1968
3836,1893
3837,1779
3838,1721
3839,1626
3840,1335
3841,1066
3842,787
3843,576
3844,406
3845,336
3846,271
3847,249
3848,245
3849,270
3850,294
3851,350
3852,382
3853,416
3854,396
3855,499
3856,534
3857,739
3858,939
3859,1146
3860,1333
3861,1472
3862,1594
3863,1648
3864,1678
3865,1708
3866,1761
3867,1813
3868,1840
3869,1869
3870,1828
3871,1774
3872,1702
3873,1615
3874,1438
3875,1126
3876,801
3877,546
3878,400
3879,278
3880,224
3881,187
3882,194
3883,211
3884,241
3885,294
3886,352
3887,391
3888,415
3889,496
3890,502
3891,679
3892,899
3893,1102
3894,1282
3895,1434
3896,1575
3897,1638
3898,1668
3899,1737
3900,1789
3901,1835
3902,1856
3903,1847
3904,1776
3905,1723
3906,1680
3907,1481
3908,1184
3909,869
3910,598
3911,399
3912,269
3913,195
3914,156
3915,144
3916,170
3917,186
3918,240
3919,272
3920,341
3921,375
3922,435
3923,450
3924,555
3925,774
3926,1008
3927,1207
3928,1349
3929,1487
3930,1579
3931,1611
3932,1657
3933,1695
3934,1749
3935,1801
3936,1831
3937,1802
3938,1729
3939,1683
3940,1641
3941,1407
3942,1227
3943,801
3944,530
3945,333
3946,202
3947,142
3948,33
3949,48
3950,107
3951,133
3952,187
3953,252
3954,347
3955,335
3956,449
3957,481
3958,599
3959,726
3960,999
3961,1142
3962,1309
3963,1438
3964,1514
3965,1570
3966,1535
3967,1581
3968,1629
3969,1662
3970,1696
3971,1722
3972,1675
3973,1594
3974,1619
3975,1367
3976,1058
3977,684
3978,407
3979,243
3980,118
3981,0
3982,0
3983,31
3984,13
3985,0
3986,117
3987,163
3988,224
3989,335
3990,368
3991,470
3992,592
3993,667
3994,847
3995,1008
3996,1195
3997,1315
3998,1393
3999,1446
4000,1473
4001,1520
4002,1535
4003,1597
4004,1653
4005,1664
4006,1693
4007,1680
4008,1535
4009,1281
4010,935
4011,657
4012,373
4013,192
4014,45
4015,0
4016,0
4017,0
4018,0
4019,9
4020,87
4021,143
4022,217
4023,321
4024,411
4025,496
4026,601
4027,673
4028,857
4029,1056
4030,1187
4031,1309
4032,1365
4033,1426
4034,1497
4035,1535
4036,1584
4037,1579
4038,1615
4039,1639
4040,1648
4041,1645
4042,1555
4043,1264
4044,886
4045,560
4046,283
4047,49
4048,7
4049,0
4050,0
4051,0
4052,0
4053,0
4054,31
4055,52
4056,139
4057,240
4058,370
4059,464
4060,525
4061,636
4062,829
4063,1002
4064,1152
4065,1281
4066,1385
4067,1395
4068,1492
4069,1493
4070,1473
4071,1535
4072,1533
4073,1520
4074,1507
4075,1456
4076,1422
4077,1279
4078,1200
4079,895
4080,642
4081,407
4082,256
4083,156
4084,80
4085,87
4086,9
4087,0
4088,81
4089,118
4090,209
4091,306
4092,437
4093,499
4094,569
4095,775
4096,955
4097,1164
4098,1280
4099,1395
4100,1443
4101,1473
4102,1535
4103,1581
4104,1616
4105,1535
4106,1501
4107,1435
4108,1316
4109,1219
4110,1059
4111,944
4112,732
4113,570
4114,401
4115,241
4116,195
4117,203
4118,24
4119,97
4120,2
4121,51
4122,207
4123,331
4124,386
4125,571
4126,595
4127,755
4128,1007
4129,1158
4130,1391
4131,1444
4132,1511
4133,1558
4134,1579
4135,1631
4136,1590
4137,1618
4138,1588
4139,1408
4140,1179
4141,866
4142,634
4143,495
4144,426
4145,417
4146,416
4147,407
4148,401
4149,378
4150,368
4151,357
4152,365
4153,381
4154,404
4155,442
4156,500
4157,591
4158,619
4159,688
4160,862
4161,1104
4162,1296
4163,1450
4164,1526
4165,1591
4166,1611
4167,1615
4168,1595
4169,1633
4170,1554
4171,1529
4172,1283
4173,953
4174,688
4175,481
4176,341
4177,225
4178,158
4179,128
4180,115
4181,114
4182,178
4183,287
4184,426
4185,474
4186,720
4187,1013
4188,1232
4189,1366
4190,1444
4191,1456
4192,1459
4193,1451
4194,1478
4195,1475
4196,1343
4197,1072
4198,787
4199,576
4200,411
4201,322
4202,256
4203,176
4204,163
4205,130
4206,161
4207,176
4208,231
4209,272
4210,368
4211,412
4212,454
4213,489
4214,656
4215,866
4216,1070
4217,1257
4218,1392
4219,1465
4220,1577
4221,1650
4222,1741
4223,1809
4224,1846
4225,1825
4226,1792
4227,1683
4228,1682
4229,1535
4230,1225
4231,889
4232,606
4233,397
4234,271
4235,171
4236,144
4237,113
4238,112
4239,141
4240,186
4241,240
4242,286
4243,371
4244,396
4245,405
4246,511
4247,613
4248,816
4249,1009
4250,1171
4251,1323
4252,1408
4253,1483
4254,1520
4255,1574
4256,1648
4257,1717
4258,1758
4259,1775
4260,1731
4261,1664
4262,1616
4263,1572
4264,1264
4265,918
4266,623
4267,394
4268,253
4269,177
4270,135
4271,99
4272,117
4273,148
4274,177
4275,240
4276,289
4277,363
4278,380
4279,439
4280,480
4281,604
4282,817
4283,1021
4284,1184
4285,1327
4286,1422
4287,1498
4288,1530
4289,1535
4290,1554
4291,1584
4292,1661
4293,1709
4294,1722
4295,1724
4296,1626
4297,1616
4298,1535
4299,1255
4300,925
4301,617
4302,413
4303,262
4304,174
4305,123
4306,114
4307,112
4308,144
4309,165
4310,241
4311,282
4312,350
4313,414
4314,432
4315,494
4316,659
4317,878
4318,1092
4319,1244
4320,1373
4321,1490
4322,1561
4323,1590
4324,1584
4325,1558
4326,1518
4327,1476
4328,1399
4329,1473
4330,1502
4331,1507
4332,1483
4333,1442
4334,1443
4335,1266
4336,958
4337,680
4338,506
4339,344
4340,232
4341,231
4342,203
4343,230
4344,222
4345,275
4346,310
4347,329
4348,357
4349,405
4350,483
4351,673
4352,880
4353,1109
4354,1279
4355,1455
4356,1520
4357,1611
4358,1648
4359,1691
4360,1677
4361,1633
4362,1569
4363,1483
4364,1447
4365,1407
4366,1335
4367,1289
4368,1226
4369,1135
4370,1062
4371,850
4372,745
4373,556
4374,443
4375,406
4376,363
4377,346
4378,304
4379,311
4380,287
4381,377
4382,425
4383,572
4384,747
4385,976
4386,1211
4387,1346
4388,1535
4389,1666
4390,1680
4391,1715
4392,1712
4393,1707
4394,1674
4395,1627
4396,1493
4397,1374
4398,1326
4399,1175
4400,1023
4401,854
4402,785
4403,740
4404,788
4405,649
4406,671
4407,576
4408,604
4409,551
4410,511
4411,455
4412,511
4413,476
4414,491
4415,575
4416,687
4417,835
4418,1089
4419,1335
4420,1499
4421,1639
4422,1703
4423,1741
4424,1765
4425,1773
4426,1731
4427,1697
4428,1565
4429,1429
4430,1368
4431,1241
4432,961
4433,762
4434,642
4435,603
4436,525
4437,446
4438,506
4439,634
4440,915
4441,988
4442,1248
4443,1325
4444,1427
4445,1535
4446,1535
4447,1573
4448,1535
4449,1520
4450,1527
4451,1306
4452,1223
4453,1071
4454,1023
4455,891
4456,715
4457,538
4458,498
4459,486
4460,414
4461,356
4462,380
4463,353
4464,345
4465,322
4466,451
4467,496
4468,656
4469,850
4470,1104
4471,1343
4472,1584
4473,1778
4474,2006
4475,1984
4476,2047
4477,2007
4478,2010
4479,1946
4480,1859
4481,1711
4482,1569
4483,1342
4484,1088
4485,847
4486,711
4487,529
4488,483
4489,381
4490,421
4491,373
4492,342
4493,314
4494,341
4495,283
4496,353
4497,419
4498,427
4499,571
4500,767
4501,977
4502,1185
4503,1374
4504,1511
4505,1605
4506,1669
4507,1744
4508,1791
4509,1863
4510,1915
4511,1904
4512,1873
4513,1776
4514,1639
4515,1597
4516,1368
4517,1115
4518,825
4519,569
4520,405
4521,306
4522,253
4523,213
4524,206
4525,239
4526,265
4527,294
4528,330
4529,292
4530,380
4531,397
4532,486
4533,688
4534,758
4535,1103
4536,1282
4537,1441
4538,1523
4539,1612
4540,1610
4541,1619
4542,1626
4543,1641
4544,1708
4545,1735
4546,1763
4547,1715
4548,1670
4549,1554
4550,1513
4551,1222
4552,933
4553,641
4554,432
4555,298
4556,175
4557,157
4558,131
4559,178
4560,208
4561,238
4562,272
4563,278
4564,306
4565,368
4566,419
4567,558
4568,752
4569,980
4570,1157
4571,1335
4572,1456
4573,1520
4574,1574
4575,1589
4576,1579
4577,1535
4578,1535
4579,1578
4580,1619
4581,1617
4582,1612
4583,1525
4584,1471
4585,1418
4586,1109
4587,811
4588,478
4589,356
4590,227
4591,144
4592,120
4593,141
4594,143
4595,186
4596,220
4597,319
4598,314
4599,347
4600,387
4601,472
4602,686
4603,899
4604,1098
4605,1265
4606,1402
4607,1494
4608,1535
4609,1567
4610,1579
4611,1525
4612,1520
4613,1514
4614,1557
4615,1578
4616,1599
4617,1535
4618,1468
4619,1482
4620,1276
4621,977
4622,690
4623,445
4624,282
4625,182
4626,129
4627,128
4628,133
4629,146
4630,197
4631,129
4632,318
4633,323
4634,400
4635,432
4636,539
4637,752
4638,955
4639,1142
4640,1296
4641,1408
4642,1515
4643,1535
4644,1569
4645,1535
4646,1535
4647,1495
4648,1488
4649,1501
4650,1535
4651,1567
4652,1503
4653,1520
4654,1461
4655,1232
4656,932
4657,649
4658,417
4659,268
4660,186
4661,130
4662,112
4663,123
4664,162
4665,225
4666,302
4667,331
4668,368
4669,398
4670,464
4671,615
4672,816
4673,1034
4674,1219
4675,1363
4676,1475
4677,1534
4678,1566
4679,1589
4680,1573
4681,1575
4682,1559
4683,1577
4684,1614
4685,1602
4686,1569
4687,1519
4688,1505
4689,1284
4690,953
4691,647
4692,414
4693,272
4694,155
4695,94
4696,79
4697,97
4698,85
4699,190
4700,249
4701,313
4702,368
4703,417
4704,511
4705,576
4706,753
4707,976
4708,1167
4709,1299
4710,1431
4711,1488
4712,1516
4713,1535
4714,1522
4715,1526
4716,1535
4717,1589
4718,1576
4719,1573
4720,1583
4721,1606
4722,1475
4723,1211
4724,882
4725,574
4726,353
4727,195
4728,96
4729,33
4730,59
4731,29
4732,47
4733,78
4734,161
4735,239
4736,313
4737,306
4738,437
4739,479
4740,594
4741,825
4742,1018
4743,1182
4744,1322
4745,1430
4746,1471
4747,1458
4748,1483
4749,1488
4750,1562
4751,1520
4752,1535
4753,1584
4754,1601
4755,1564
4756,1583
4757,1419
4758,1102
4759,795
4760,475
4761,246
4762,131
4763,33
4764,0
4765,0
4766,0
4767,0
4768,60
4769,131
4770,205
4771,220
4772,375
4773,459
4774,486
4775,576
4776,800
4777,1077
4778,1169
4779,1276
4780,1362
4781,1407
4782,1424
4783,1479
4784,1511
4785,1509
4786,1535
4787,1535
4788,1585
4789,1630
4790,1603
4791,1432
4792,1149
4793,773
4794,496
4795,238
4796,121
4797,48
4798,0
4799,0
4800,0
4801,0
4802,20
4803,48
4804,66
4805,225
4806,272
4807,481
4808,551
4809,578
4810,739
4811,931
4812,1097
4813,1211
4814,1312
4815,1353
4816,1380
4817,1453
4818,1520
4819,1519
4820,1535
4821,1575
4822,1535
4823,1563
4824,1535
4825,1511
4826,1347
4827,990
4828,674
4829,410
4830,263
4831,87
4832,0
4833,0
4834,0
4835,0
4836,0
4837,50
4838,83
4839,192
4840,247
4841,371
4842,431
4843,498
4844,613
4845,795
4846,944
4847,1111
4848,1239
4849,1290
4850,1395
4851,1429
4852,1436
4853,1486
4854,1501
4855,1461
4856,1504
4857,1535
4858,1505
4859,1473
4860,1535
4861,1283
4862,1105
4863,777
4864,442
4865,240
4866,95
4867,30
4868,17
4869,0
4870,31
4871,0
4872,47
4873,89
4874,219
4875,181
4876,365
4877,398
4878,489
4879,635
4880,800
4881,953
4882,1158
4883,1271
4884,1289
4885,1335
4886,1401
4887,1451
4888,1506
4889,1477
4890,1482
4891,1479
4892,1509
4893,1535
4894,1583
4895,1522
4896,1268
4897,918
4898,612
4899,346
4900,144
4901,70
4902,18
4903,0
4904,31
4905,0
4906,0
4907,96
4908,136
4909,41
4910,283
4911,471
4912,531
4913,590
4914,717
4915,912
4916,1072
4917,1213
4918,1312
4919,1351
4920,1356
4921,1410
4922,1437
4923,1450
4924,1487
4925,1442
4926,1369
4927,1394
4928,1343
4929,1305
4930,1133
4931,1006
4932,645
4933,461
4934,303
4935,192
4936,141
4937,80
4938,80
4939,93
4940,154
4941,208
4942,299
4943,396
4944,478
4945,555
4946,653
4947,848
4948,1039
4949,1187
4950,1302
4951,1383
4952,1437
4953,1472
4954,1499
4955,1472
4956,1523
4957,1511
4958,1392
4959,1140
4960,941
4961,808
4962,720
4963,639
4964,569
4965,531
4966,448
4967,385
4968,333
4969,304
4970,282
4971,266
4972,288
4973,336
4974,418
4975,524
4976,524
4977,615
4978,831
4979,1062
4980,1241
4981,1376
4982,1471
4983,1519
4984,1535
4985,1565
4986,1535
4987,1520
4988,1520
4989,1455
4990,1281
4991,983
4992,752
4993,585
4994,528
4995,492
4996,496
4997,502
4998,511
4999,524
5000,509
5001,496
5002,510
5003,497
5004,505
5005,533
5006,592
5007,591
5008,622
5009,656
5010,835
5011,1040
5012,1206
5013,1362
5014,1442
5015,1501
5016,1535
5017,1535
5018,1521
5019,1510
5020,1488
5021,1431
5022,1254
5023,976
5024,737
5025,547
5026,404
5027,343
5028,346
5029,408
5030,475
5031,523
5032,557
5033,610
5034,722
5035,881
5036,1001
5037,1131
5038,1212
5039,1267
5040,1307
5041,1337
5042,1346
5043,1346
5044,1337
5045,1365
5046,1328
5047,1136
5048,870
5049,656
5050,457
5051,341
5052,272
5053,237
5054,190
5055,192
5056,214
5057,238
5058,276
5059,353
5060,368
5061,416
5062,598
5063,944
5064,1290
5065,1558
5066,1711
5067,1770
5068,1795
5069,1781
5070,1804
5071,1685
5072,1613
5073,1602
5074,1488
5075,1237
5076,951
5077,726
5078,576
5079,432
5080,355
5081,289
5082,243
5083,213
5084,219
5085,243
5086,262
5087,322
5088,373
5089,425
5090,453
5091,496
5092,657
5093,912
5094,1207
5095,1477
5096,1699
5097,1813
5098,1863
5099,1863
5100,1840
5101,1793
5102,1699
5103,1680
5104,1575
5105,1293
5106,978
5107,729
5108,525
5109,391
5110,322
5111,270
5112,238
5113,208
5114,218
5115,245
5116,269
5117,299
5118,349
5119,392
5120,466
5121,474
5122,622
5123,823
5124,1050
5125,1230
5126,1385
5127,1498
5128,1634
5129,1759
5130,1822
5131,1857
5132,1857
5133,1819
5134,1721
5135,1647
5136,1617
5137,1332
5138,995
5139,703
5140,502
5141,371
5142,250
5143,213
5144,208
5145,211
5146,203
5147,233
5148,289
5149,339
5150,318
5151,379
5152,463
5153,464
5154,624
5155,819
5156,1017
5157,1238
5158,1358
5159,1490
5160,1589
5161,1662
5162,1707
5163,1775
5164,1840
5165,1846
5166,1808
5167,1754
5168,1631
5169,1571
5170,1423
5171,1042
5172,783
5173,541
5174,347
5175,270
5176,224
5177,226
5178,205
5179,206
5180,271
5181,336
5182,275
5183,319
5184,370
5185,400
5186,487
5187,643
5188,875
5189,1065
5190,1268
5191,1452
5192,1518
5193,1655
5194,1685
5195,1691
5196,1682
5197,1681
5198,1744
5199,1780
5200,1817
5201,1780
5202,1680
5203,1519
5204,1472
5205,1165
5206,853
5207,640
5208,479
5209,324
5210,264
5211,221
5212,229
5213,252
5214,243
5215,208
5216,250
5217,260
5218,354
5219,389
5220,529
5221,710
5222,922
5223,1129
5224,1321
5225,1483
5226,1582
5227,1645
5228,1709
5229,1711
5230,1707
5231,1674
5232,1629
5233,1494
5234,1392
5235,1355
5236,1267
5237,1227
5238,1086
5239,1037
5240,812
5241,687
5242,560
5243,452
5244,375
5245,427
5246,331
5247,272
5248,315
5249,336
5250,361
5251,422
5252,571
5253,777
5254,1023
5255,1239
5256,1419
5257,1509
5258,1681
5259,1719
5260,1730
5261,1752
5262,1744
5263,1695
5264,1595
5265,1472
5266,1353
5267,1306
5268,1011
5269,862
5270,689
5271,671
5272,698
5273,511
5274,547
5275,538
5276,538
5277,560
5278,560
5279,548
5280,576
5281,579
5282,611
5283,649
5284,727
5285,848
5286,1023
5287,1211
5288,1426
5289,1521
5290,1520
5291,1679
5292,1677
5293,1718
5294,1655
5295,1556
5296,1444
5297,1346
5298,1245
5299,1008
5300,767
5301,659
5302,496
5303,294
5304,448
5305,401
5306,313
5307,368
5308,541
5309,753
5310,1008
5311,1221
5312,1416
5313,1555
5314,1664
5315,1648
5316,1631
5317,1652
5318,1599
5319,1520
5320,1314
5321,1260
5322,1241
5323,1019
5324,810
5325,648
5326,528
5327,462
5328,443
5329,348
5330,283
5331,361
5332,69
5333,355
5334,317
5335,400
5336,380
5337,529
5338,727
5339,945
5340,1183
5341,1367
5342,1584
5343,1732
5344,1903
5345,1971
5346,2014
5347,1937
5348,1937
5349,1811
5350,1711
5351,1565
5352,1435
5353,1153
5354,912
5355,673
5356,528
5357,413
5358,358
5359,319
5360,310
5361,301
5362,295
5363,334
5364,311
5365,339
5366,371
5367,423
5368,496
5369,685
5370,897
5371,1088
5372,1280
5373,1408
5374,1516
5375,1584
5376,1614
5377,1644
5378,1717
5379,1753
5380,1785
5381,1807
5382,1763
5383,1693
5384,1567
5385,1520
5386,1266
5387,956
5388,703
5389,468
5390,345
5391,267
5392,236
5393,208
5394,211
5395,237
5396,263
5397,302
5398,329
5399,307
5400,400
5401,413
5402,538
5403,704
5404,919
5405,1115
5406,1291
5407,1418
5408,1502
5409,1562
5410,1586
5411,1589
5412,1616
5413,1661
5414,1696
5415,1744
5416,1718
5417,1655
5418,1535
5419,1517
5420,1284
5421,963
5422,713
5423,482
5424,327
5425,235
5426,197
5427,154
5428,176
5429,202
5430,217
5431,274
5432,303
5433,337
5434,384
5435,418
5436,487
5437,695
5438,899
5439,1114
5440,1269
5441,1396
5442,1483
5443,1535
5444,1562
5445,1554
5446,1535
5447,1496
5448,1488
5449,1511
5450,1559
5451,1535
5452,1517
5453,1531
5454,1456
5455,1255
5456,971
5457,677
5458,471
5459,306
5460,215
5461,160
5462,127
5463,146
5464,195
5465,219
5466,283
5467,332
5468,342
5469,390
5470,430
5471,547
5472,743
5473,912
5474,1120
5475,1264
5476,1391
5477,1451
5478,1481
5479,1495
5480,1487
5481,1450
5482,1399
5483,1376
5484,1392
5485,1273
5486,1305
5487,1219
5488,1104
5489,942
5490,751
5491,602
5492,447
5493,352
5494,290
5495,271
5496,263
5497,267
5498,281
5499,365
5500,388
5501,398
5502,440
5503,581
5504,763
5505,979
5506,1178
5507,1305
5508,1423
5509,1484
5510,1523
5511,1535
5512,1491
5513,1439
5514,1461
5515,1401
5516,1285
5517,1040
5518,827
5519,676
5520,627
5521,629
5522,631
5523,608
5524,590
5525,549
5526,535
5527,494
5528,463
5529,458
5530,456
5531,467
5532,480
5533,536
5534,525
5535,573
5536,701
5537,973
5538,1174
5539,1323
5540,1427
5541,1491
5542,1520
5543,1535
5544,1526
5545,1466
5546,1457
5547,1456
5548,1364
5549,1088
5550,819
5551,618
5552,458
5553,355
5554,304
5555,337
5556,433
5557,464
5558,509
5559,610
5560,725
5561,912
5562,1075
5563,1156
5564,1259
5565,1276
5566,1289
5567,1282
5568,1287
5569,1354
5570,1287
5571,1187
5572,919
5573,703
5574,493
5575,385
5576,295
5577,219
5578,176
5579,208
5580,169
5581,155
5582,245
5583,294
5584,325
5585,402
5586,438
5587,438
5588,603
5589,848
5590,1085
5591,1339
5592,1504
5593,1683
5594,1750
5595,1750
5596,1717
5597,1725
5598,1685
5599,1628
5600,1463
5601,1152
5602,827
5603,584
5604,368
5605,254
5606,169
5607,147
5608,122
5609,107
5610,103
5611,113
5612,51
5613,177
5614,219
5615,304
5616,400
5617,491
5618,561
5619,627
5620,790
5621,982
5622,1135
5623,1278
5624,1358
5625,1467
5626,1604
5627,1661
5628,1691
5629,1652
5630,1729
5631,1697
5632,1655
5633,1445
5634,1079
5635,755
5636,451
5637,250
5638,91
5639,26
5640,0
5641,0
5642,0
5643,0
5644,0
5645,61
5646,98
5647,143
5648,221
5649,334
5650,464
5651,511
5652,788
5653,713
5654,904
5655,1075
5656,1171
5657,1280
5658,1344
5659,1366
5660,1415
5661,1581
5662,1568
5663,1615
5664,1637
5665,1629
5666,1591
5667,1644
5668,1403
5669,1104
5670,757
5671,491
5672,243
5673,91
5674,0
5675,0
5676,0
5677,0
5678,0
5679,0
5680,9
5681,64
5682,128
5683,236
5684,355
5685,432
5686,511
5687,560
5688,672
5689,861
5690,1015
5691,1150
5692,1232
5693,1317
5694,1321
5695,1392
5696,1383
5697,1407
5698,1370
5699,1511
5700,1555
5701,1573
5702,1497
5703,1436
5704,1201
5705,863
5706,511
5707,240
5708,69
5709,14
5710,0
5711,0
5712,0
5713,0
5714,0
5715,42
5716,80
5717,122
5718,225
5719,274
5720,421
5721,454
5722,641
5723,693
5724,873
5725,1008
5726,1129
5727,1232
5728,1274
5729,1305
5730,1347
5731,1369
5732,1411
5733,1441
5734,1454
5735,1488
5736,1575
5737,1505
5738,1430
5739,1080
5740,752
5741,440
5742,241
5743,80
5744,77
5745,0
5746,0
5747,0
5748,0
5749,0
5750,56
5751,91
5752,166
5753,257
5754,359
5755,430
5756,454
5757,586
5758,790
5759,929
5760,1097
5761,1206
5762,1296
5763,1333
5764,1355
5765,1372
5766,1402
5767,1386
5768,1392
5769,1373
5770,1395
5771,1411
5772,1346
5773,1323
5774,1064
5775,751
5776,486
5777,305
5778,174
5779,97
5780,38
5781,0
5782,0
5783,26
5784,38
5785,135
5786,209
5787,277
5788,352
5789,387
5790,453
5791,621
5792,834
5793,976
5794,1127
5795,1227
5796,1291
5797,1321
5798,1331
5799,1361
5800,1350
5801,1365
5802,1379
5803,1264
5804,1011
5805,773
5806,687
5807,619
5808,603
5809,570
5810,507
5811,476
5812,386
5813,367
5814,333
5815,286
5816,295
5817,273
5818,308
5819,384
5820,414
5821,464
5822,502
5823,670
5824,867
5825,1076
5826,1218
5827,1311
5828,1392
5829,1434
5830,1472
5831,1452
5832,1419
5833,1408
5834,1383
5835,1286
5836,991
5837,751
5838,531
5839,417
5840,370
5841,382
5842,432
5843,449
5844,483
5845,463
5846,494
5847,478
5848,478
5849,525
5850,466
5851,495
5852,502
5853,560
5854,581
5855,586
5856,695
5857,905
5858,1081
5859,1227
5860,1351
5861,1412
5862,1447
5863,1462
5864,1434
5865,1401
5866,1430
5867,1386
5868,1152
5869,891
5870,643
5871,464
5872,353
5873,289
5874,272
5875,318
5876,410
5877,458
5878,483
5879,545
5880,685
5881,845
5882,960
5883,1085
5884,1156
5885,1206
5886,1221
5887,1210
5888,1271
5889,1206
5890,1181
5891,1147
5892,913
5893,698
5894,526
5895,393
5896,304
5897,247
5898,225
5899,203
5900,201
5901,224
5902,258
5903,313
5904,359
5905,385
5906,421
5907,467
5908,682
5909,880
5910,1121
5911,1387
5912,1635
5913,1776
5914,1840
5915,1854
5916,1808
5917,1746
5918,1663
5919,1639
5920,1488
5921,1178
5922,847
5923,588
5924,432
5925,317
5926,259
5927,249
5928,215
5929,181
5930,192
5931,262
5932,258
5933,272
5934,288
5935,351
5936,362
5937,410
5938,511
5939,713
5940,907
5941,1093
5942,1264
5943,1377
5944,1456
5945,1501
5946,1535
5947,1517
5948,1491
5949,1453
5950,1459
5951,1484
5952,1535
5953,1535
5954,1535
5955,1486
5956,1425
5957,1333
5958,945
5959,730
5960,483
5961,352
5962,264
5963,238
5964,208
5965,252
5966,208
5967,256
5968,271
5969,283
5970,320
5971,183
5972,415
5973,572
5974,803
5975,969
5976,1147
5977,1303
5978,1422
5979,1502
5980,1559
5981,1578
5982,1590
5983,1562
5984,1452
5985,1453
5986,1399
5987,1388
5988,1347
5989,1284
5990,1241
5991,1157
5992,889
5993,691
5994,501
5995,419
5996,348
5997,289
5998,304
5999,215
6000,265
6001,233
6002,272
6003,317
6004,403
6005,554
6006,752
6007,993
6008,1232
6009,1322
6010,1456
6011,1573
6012,1615
6013,1641
6014,1619
6015,1630
6016,1559
6017,1503
6018,1482
6019,1470
6020,1347
6021,1319
6022,1293
6023,1121
6024,849
6025,639
6026,490
6027,400
6028,416
6029,271
6030,229
6031,256
6032,214
6033,208
6034,243
6035,282
6036,354
6037,495
6038,706
6039,913
6040,1114
6041,1281
6042,1459
6043,1530
6044,1601
6045,1630
6046,1664
6047,1637
6048,1600
6049,1512
6050,1429
6051,1284
6052,1281
6053,1109
6054,1042
6055,929
6056,844
6057,709
6058,592
6059,537
6060,491
6061,368
6062,296
6063,301
6064,379
6065,315
6066,295
6067,336
6068,486
6069,586
6070,802
6071,1043
6072,1264
6073,1440
6074,1573
6075,1626
6076,1589
6077,1667
6078,1639
6079,1650
6080,1582
6081,1461
6082,1360
6083,1287
6084,1072
6085,884
6086,767
6087,739
6088,672
6089,612
6090,565
6091,549
6092,538
6093,573
6094,482
6095,463
6096,442
6097,433
6098,454
6099,423
6100,488
6101,573
6102,745
6103,979
6104,1188
6105,1388
6106,1488
6107,1586
6108,1623
6109,1639
6110,1648
6111,1607
6112,1535
6113,1419
6114,1419
6115,1280
6116,1018
6117,805
6118,653
6119,589
6120,575
6121,565
6122,551
6123,533
6124,542
6125,538
6126,493
6127,495
6128,489
6129,476
6130,456
6131,467
6132,461
6133,535
6134,609
6135,813
6136,1055
6137,1266
6138,1414
6139,1519
6140,1586
6141,1602
6142,1619
6143,1590
6144,1535
6145,1450
6146,1395
6147,1326
6148,1072
6149,819
6150,711
6151,640
6152,605
6153,563
6154,531
6155,487
6156,455
6157,428
6158,393
6159,382
6160,374
6161,384
6162,403
6163,398
6164,437
6165,474
6166,629
6167,854
6168,1081
6169,1277
6170,1431
6171,1519
6172,1584
6173,1600
6174,1611
6175,1590
6176,1534
6177,1456
6178,1462
6179,1355
6180,1121
6181,880
6182,766
6183,707
6184,670
6185,594
6186,528
6187,483
6188,413
6189,365
6190,350
6191,355
6192,330
6193,352
6194,381
6195,372
6196,447
6197,437
6198,614
6199,827
6200,1063
6201,1243
6202,1391
6203,1500
6204,1566
6205,1594
6206,1583
6207,1584
6208,1513
6209,1482
6210,1438
6211,1279
6212,1006
6213,751
6214,582
6215,501
6216,522
6217,527
6218,528
6219,528
6220,511
6221,496
6222,496
6223,482
6224,468
6225,470
6226,496
6227,486
6228,528
6229,551
6230,547
6231,707
6232,928
6233,1130
6234,1296
6235,1431
6236,1503
6237,1535
6238,1569
6239,1564
6240,1507
6241,1466
6242,1461
6243,1379
6244,1102
6245,831
6246,623
6247,452
6248,341
6249,269
6250,226
6251,267
6252,336
6253,400
6254,424
6255,565
6256,791
6257,1007
6258,1174
6259,1279
6260,1355
6261,1389
6262,1392
6263,1381
6264,1328
6265,1299
6266,1343
6267,1199
6268,957
6269,746
6270,560
6271,422
6272,324
6273,255
6274,219
6275,178
6276,198
6277,198
6278,258
6279,304
6280,360
6281,387
6282,409
6283,460
6284,601
6285,816
6286,1033
6287,1217
6288,1376
6289,1523
6290,1659
6291,1767
6292,1840
6293,1840
6294,1808
6295,1742
6296,1680
6297,1625
6298,1400
6299,1080
6300,766
6301,527
6302,355
6303,211
6304,167
6305,159
6306,129
6307,113
6308,153
6309,184
6310,225
6311,304
6312,336
6313,368
6314,407
6315,491
6316,548
6317,778
6318,973
6319,1143
6320,1275
6321,1361
6322,1461
6323,1463
6324,1484
6325,1519
6326,1571
6327,1614
6328,1634
6329,1602
6330,1535
6331,1563
6332,1408
6333,1072
6334,714
6335,463
6336,226
6337,69
6338,0
6339,0
6340,0
6341,43
6342,0
6343,64
6344,82
6345,202
6346,287
6347,336
6348,397
6349,396
6350,511
6351,717
6352,895
6353,1063
6354,1196
6355,1296
6356,1344
6357,1391
6358,1399
6359,1348
6360,1427
6361,1508
6362,1501
6363,1497
6364,1476
6365,1535
6366,1456
6367,1104
6368,802
6369,547
6370,272
6371,87
6372,0
6373,0
6374,0
6375,0
6376,0
6377,0
6378,10
6379,119
6380,146
6381,243
6382,355
6383,388
6384,476
6385,575
6386,763
6387,954
6388,1102
6389,1197
6390,1282
6391,1325
6392,1360
6393,1379
6394,1449
6395,1375
6396,1456
6397,1471
6398,1510
6399,1490
6400,1467
6401,1175
6402,812
6403,500
6404,240
6405,133
6406,0
6407,0
6408,0
6409,0
6410,0
6411,0
6412,6
6413,0
6414,114
6415,208
6416,279
6417,391
6418,559
6419,525
6420,675
6421,867
6422,1011
6423,1093
6424,1191
6425,1277
6426,1232
6427,1305
6428,1378
6429,1395
6430,1497
6431,1477
6432,1520
6433,1609
6434,1477
6435,1245
6436,880
6437,471
6438,292
6439,131
6440,69
6441,0
6442,0
6443,0
6444,0
6445,0
6446,0
6447,35
6448,98
6449,205
6450,249
6451,420
6452,464
6453,639
6454,689
6455,910
6456,981
6457,1133
6458,1239
6459,1261
6460,1307
6461,1313
6462,1427
6463,1506
6464,1513
6465,1531
6466,1602
6467,1557
6468,1248
6469,906
6470,577
6471,288
6472,144
6473,0
6474,0
6475,0
6476,0
6477,0
6478,0
6479,0
6480,32
6481,0
6482,191
6483,208
6484,384
6485,477
6486,582
6487,601
6488,781
6489,949
6490,1101
6491,1245
6492,1218
6493,1275
6494,1477
6495,1377
6496,1491
6497,1503
6498,1535
6499,1518
6500,1569
6501,1367
6502,1015
6503,719
6504,405
6505,149
6506,80
6507,0
6508,0
6509,0
6510,0
6511,0
6512,0
6513,0
6514,69
6515,208
6516,208
6517,270
6518,355
6519,414
6520,558
6521,707
6522,902
6523,1038
6524,1156
6525,1227
6526,1297
6527,1306
6528,1422
6529,1265
6530,1456
6531,1458
6532,1467
6533,1553
6534,1535
6535,1285
6536,975
6537,690
6538,369
6539,158
6540,68
6541,0
6542,0
6543,0
6544,0
6545,3
6546,30
6547,92
6548,157
6549,234
6550,313
6551,368
6552,446
6553,528
6554,658
6555,863
6556,1018
6557,1136
6558,1214
6559,1274
6560,1297
6561,1338
6562,1373
6563,1389
6564,1429
6565,1453
6566,1472
6567,1441
6568,1424
6569,1103
6570,749
6571,487
6572,307
6573,166
6574,80
6575,29
6576,0
6577,16
6578,12
6579,45
6580,90
6581,170
6582,228
6583,336
6584,341
6585,431
6586,496
6587,654
6588,843
6589,993
6590,1119
6591,1214
6592,1297
6593,1317
6594,1348
6595,1339
6596,1338
6597,1370
6598,1325
6599,1326
6600,1321
6601,1354
6602,1199
6603,929
6604,663
6605,449
6606,272
6607,205
6608,142
6609,87
6610,59
6611,70
6612,111
6613,144
6614,199
6615,301
6616,343
6617,384
6618,433
6619,621
6620,781
6621,944
6622,1085
6623,1199
6624,1264
6625,1339
6626,1349
6627,1362
6628,1326
6629,1335
6630,1306
6631,1278
6632,1023
6633,822
6634,704
6635,612
6636,574
6637,510
6638,449
6639,399
6640,361
6641,313
6642,297
6643,305
6644,304
6645,333
6646,369
6647,427
6648,421
6649,487
6650,593
6651,789
6652,986
6653,1155
6654,1266
6655,1354
6656,1403
6657,1431
6658,1421
6659,1393
6660,1390
6661,1427
6662,1360
6663,1101
6664,846
6665,641
6666,490
6667,388
6668,320
6669,324
6670,368
6671,446
6672,491
6673,511
6674,571
6675,590
6676,625
6677,644
6678,691
6679,774
6680,867
6681,974
6682,1078
6683,1150
6684,1221
6685,1269
6686,1297
6687,1260
6688,1275
6689,1302
6690,1234
6691,979
6692,752
6693,560
6694,414
6695,341
6696,267
6697,208
6698,208
6699,215
6700,234
6701,267
6702,306
6703,368
6704,389
6705,465
6706,794
6707,1086
6708,1325
6709,1456
6710,1535
6711,1574
6712,1610
6713,1572
6714,1507
6715,1469
6716,1451
6717,1346
6718,1067
6719,834
6720,635
6721,487
6722,402
6723,310
6724,268
6725,254
6726,230
6727,230
6728,256
6729,284
6730,336
6731,367
6732,368
6733,451
6734,469
6735,653
6736,839
6737,1044
6738,1201
6739,1360
6740,1535
6741,1660
6742,1775
6743,1779
6744,1745
6745,1683
6746,1586
6747,1523
6748,1431
6749,1107
6750,789
6751,579
6752,419
6753,282
6754,272
6755,231
6756,214
6757,234
6758,213
6759,323
6760,299
6761,384
6762,324
6763,371
6764,433
6765,481
6766,583
6767,763
6768,944
6769,1122
6770,1230
6771,1321
6772,1394
6773,1445
6774,1515
6775,1585
6776,1649
6777,1703
6778,1671
6779,1579
6780,1499
6781,1445
6782,1181
6783,858
6784,610
6785,423
6786,338
6787,252
6788,182
6789,190
6790,214
6791,243
6792,231
6793,239
6794,261
6795,320
6796,334
6797,347
6798,432
6799,597
6800,767
6801,979
6802,1101
6803,1284
6804,1383
6805,1434
6806,1506
6807,1493
6808,1510
6809,1535
6810,1585
6811,1634
6812,1597
6813,1535
6814,1386
6815,1360
6816,1136
6817,866
6818,623
6819,441
6820,336
6821,272
6822,237
6823,256
6824,251
6825,225
6826,213
6827,278
6828,290
6829,320
6830,320
6831,437
6832,571
6833,802
6834,920
6835,1171
6836,1283
6837,1371
6838,1472
6839,1535
6840,1559
6841,1524
6842,1488
6843,1515
6844,1515
6845,1531
6846,1520
6847,1456
6848,1297
6849,1198
6850,912
6851,705
6852,510
6853,384
6854,333
6855,239
6856,236
6857,256
6858,212
6859,209
6860,256
6861,261
6862,309
6863,342
6864,481
6865,653
6866,824
6867,998
6868,1177
6869,1287
6870,1387
6871,1462
6872,1490
6873,1519
6874,1493
6875,1555
6876,1598
6877,1628
6878,1591
6879,1531
6880,1376
6881,1280
6882,1140
6883,860
6884,549
6885,457
6886,320
6887,296
6888,228
6889,301
6890,240
6891,206
6892,261
6893,305
6894,313
6895,297
6896,359
6897,531
6898,695
6899,897
6900,1082
6901,1244
6902,1344
6903,1437
6904,1504
6905,1519
6906,1520
6907,1510
6908,1488
6909,1510
6910,1568
6911,1389
6912,1513
6913,1399
6914,1339
6915,1223
6916,896
6917,644
6918,525
6919,365
6920,304
6921,242
6922,234
6923,240
6924,218
6925,219
6926,201
6927,263
6928,265
6929,314
6930,384
6931,537
6932,726
6933,935
6934,1079
6935,1249
6936,1364
6937,1461
6938,1474
6939,1533
6940,1429
6941,1533
6942,1586
6943,1603
6944,1611
6945,1564
6946,1455
6947,1392
6948,1214
6949,887
6950,634
6951,439
6952,317
6953,211
6954,174
6955,145
6956,176
6957,193
6958,222
6959,222
6960,262
6961,256
6962,295
6963,338
6964,448
6965,601
6966,797
6967,975
6968,1142
6969,1269
6970,1360
6971,1414
6972,1439
6973,1472
6974,1529
6975,1589
6976,1627
6977,1611
6978,1525
6979,1407
6980,1386
6981,1136
6982,817
6983,573
6984,379
6985,257
6986,177
6987,128
6988,123
6989,137
6990,159
6991,208
6992,237
6993,265
6994,261
6995,294
6996,318
6997,396
6998,534
6999,722
7000,926
7001,1085
7002,1211
7003,1319
7004,1389
7005,1428
7006,1463
7007,1517
7008,1577
7009,1610
7010,1623
7011,1570
7012,1449
7013,1429
7014,1242
7015,918
7016,624
7017,418
7018,267
7019,176
7020,107
7021,80
7022,97
7023,101
7024,144
7025,177
7026,221
7027,272
7028,307
7029,335
7030,343
7031,410
7032,600
7033,793
7034,991
7035,1136
7036,1262
7037,1345
7038,1376
7039,1411
7040,1452
7041,1481
7042,1535
7043,1570
7044,1561
7045,1485
7046,1402
7047,1403
7048,1105
7049,797
7050,533
7051,347
7052,208
7053,113
7054,78
7055,73
7056,57
7057,80
7058,131
7059,150
7060,215
7061,272
7062,272
7063,304
7064,343
7065,400
7066,569
7067,745
7068,925
7069,1088
7070,1216
7071,1299
7072,1361
7073,1380
7074,1395
7075,1387
7076,1409
7077,1455
7078,1463
7079,1405
7080,1370
7081,1379
7082,1195
7083,875
7084,595
7085,382
7086,234
7087,112
7088,65
7089,33
7090,23
7091,47
7092,75
7093,117
7094,192
7095,243
7096,286
7097,281
7098,322
7099,400
7100,542
7101,731
7102,912
7103,1087
7104,1193
7105,1296
7106,1356
7107,1376
7108,1366
7109,1341
7110,1285
7111,1337
7112,1289
7113,1237
7114,1174
7115,999
7116,799
7117,605
7118,420
7119,320
7120,230
7121,133
7122,122
7123,99
7124,96
7125,116
7126,192
7127,254
7128,288
7129,312
7130,336
7131,421
7132,625
7133,800
7134,976
7135,1115
7136,1183
7137,1315
7138,1328
7139,1350
7140,1360
7141,1301
7142,1280
7143,1260
7144,1174
7145,943
7146,710
7147,511
7148,323
7149,285
7150,199
7151,145
7152,158
7153,158
7154,283
7155,350
7156,384
7157,490
7158,608
7159,816
7160,929
7161,1076
7162,1154
7163,1189
7164,1229
7165,1223
7166,1232
7167,1236
7168,1263
7169,1186
7170,997
7171,690
7172,542
7173,385
7174,208
7175,153
7176,97
7177,67
7178,43
7179,53
7180,73
7181,98
7182,174
7183,204
7184,293
7185,402
7186,364
7187,458
7188,619
7189,800
7190,1046
7191,1223
7192,1399
7193,1534
7194,1615
7195,1602
7196,1574
7197,1511
7198,1481
7199,1475
7200,1267
7201,918
7202,623
7203,386
7204,203
7205,133
7206,98
7207,16
7208,0
7209,0
7210,0
7211,18
7212,48
7213,84
7214,165
7215,231
7216,314
7217,339
7218,423
7219,497
7220,638
7221,818
7222,1008
7223,1125
7224,1207
7225,1221
7226,1325
7227,1324
7228,1373
7229,1413
7230,1453
7231,1527
7232,1490
7233,1511
7234,1382
7235,1055
7236,613
7237,376
7238,197
7239,70
7240,0
7241,0
7242,0
7243,0
7244,0
7245,0
7246,0
7247,0
7248,50
7249,160
7250,202
7251,331
7252,250
7253,487
7254,579
7255,669
7256,849
7257,1010
7258,1111
7259,1179
7260,1235
7261,1218
7262,1347
7263,1309
7264,1371
7265,1395
7266,1421
7267,1424
7268,1390
7269,1166
7270,846
7271,528
7272,332
7273,134
7274,0
7275,0
7276,0
7277,0
7278,0
7279,0
7280,0
7281,0
7282,46
7283,109
7284,203
7285,272
7286,390
7287,447
7288,475
7289,640
7290,818
7291,987
7292,1085
7293,1185
7294,1243
7295,1262
7296,1249
7297,1298
7298,1339
7299,1331
7300,1366
7301,1422
7302,1402
7303,1395
7304,1211
7305,866
7306,543
7307,304
7308,131
7309,0
7310,0
7311,0
7312,0
7313,0
7314,0
7315,0
7316,5
7317,16
7318,101
7319,193
7320,251
7321,379
7322,387
7323,425
7324,597
7325,778
7326,945
7327,1077
7328,1163
7329,1246
7330,1292
7331,1312
7332,1328
7333,1371
7334,1454
7335,1449
7336,1473
7337,1457
7338,1507
7339,1293
7340,953
7341,574
7342,333
7343,137
7344,51
7345,0
7346,0
7347,0
7348,0
7349,13
7350,0
7351,0
7352,17
7353,16
7354,140
7355,187
7356,334
7357,368
7358,390
7359,535
7360,720
7361,913
7362,1100
7363,1200
7364,1263
7365,1344
7366,1425
7367,1516
7368,1584
7369,1585
7370,1557
7371,1485
7372,1526
7373,1314
7374,964
7375,635
7376,336
7377,131
7378,45
7379,0
7380,0
7381,0
7382,0
7383,0
7384,0
7385,7
7386,57
7387,112
7388,181
7389,238
7390,331
7391,368
7392,445
7393,530
7394,747
7395,937
7396,1118
7397,1262
7398,1424
7399,1557
7400,1648
7401,1647
7402,1619
7403,1567
7404,1520
7405,1481
7406,1390
7407,1003
7408,655
7409,393
7410,240
7411,125
7412,39
7413,0
7414,0
7415,0
7416,12
7417,28
7418,58
7419,83
7420,135
7421,192
7422,250
7423,320
7424,324
7425,351
7426,423
7427,617
7428,833
7429,1023
7430,1185
7431,1392
7432,1535
7433,1658
7434,1695
7435,1725
7436,1673
7437,1610
7438,1511
7439,1530
7440,1445
7441,1046
7442,701
7443,437
7444,269
7445,123
7446,82
7447,20
7448,16
7449,7
7450,30
7451,26
7452,48
7453,64
7454,116
7455,169
7456,229
7457,289
7458,349
7459,384
7460,416
7461,558
7462,785
7463,979
7464,1167
7465,1350
7466,1488
7467,1620
7468,1726
7469,1754
7470,1744
7471,1705
7472,1615
7473,1535
7474,1535
7475,1269
7476,869
7477,554
7478,342
7479,182
7480,91
7481,37
7482,3
7483,2
7484,5
7485,29
7486,69
7487,101
7488,96
7489,169
7490,240
7491,301
7492,319
7493,350
7494,413
7495,585
7496,804
7497,1007
7498,1182
7499,1322
7500,1450
7501,1584
7502,1674
7503,1732
7504,1712
7505,1659
7506,1679
7507,1513
7508,1490
7509,1231
7510,869
7511,562
7512,366
7513,223
7514,105
7515,91
7516,64
7517,59
7518,74
7519,75
7520,90
7521,119
7522,170
7523,201
7524,244
7525,322
7526,310
7527,382
7528,426
7529,578
7530,786
7531,1001
7532,1215
7533,1421
7534,1596
7535,1710
7536,1728
7537,1727
7538,1680
7539,1593
7540,1379
7541,1488
7542,1246
7543,881
7544,591
7545,394
7546,269
7547,171
7548,111
7549,71
7550,66
7551,56
7552,69
7553,96
7554,129
7555,178
7556,238
7557,320
7558,332
7559,382
7560,419
7561,582
7562,818
7563,1008
7564,1152
7565,1316
7566,1465
7567,1616
7568,1734
7569,1770
7570,1757
7571,1703
7572,1611
7573,1535
7574,1495
7575,1166
7576,807
7577,537
7578,347
7579,205
7580,137
7581,91
7582,79
7583,64
7584,70
7585,94
7586,127
7587,195
7588,231
7589,271
7590,306
7591,331
7592,435
7593,496
7594,691
7595,905
7596,1089
7597,1249
7598,1378
7599,1525
7600,1668
7601,1738
7602,1774
7603,1742
7604,1647
7605,1567
7606,1488
7607,1415
7608,1036
7609,707
7610,495
7611,336
7612,240
7613,203
7614,153
7615,134
7616,187
7617,160
7618,177
7619,231
7620,264
7621,234
7622,317
7623,320
7624,359
7625,462
7626,644
7627,859
7628,1077
7629,1199
7630,1335
7631,1495
7632,1621
7633,1756
7634,1803
7635,1803
7636,1777
7637,1712
7638,1571
7639,1467
7640,1334
7641,964
7642,674
7643,461
7644,316
7645,279
7646,239
7647,193
7648,160
7649,204
7650,256
7651,241
7652,256
7653,261
7654,339
7655,326
7656,353
7657,446
7658,591
7659,817
7660,1014
7661,1186
7662,1296
7663,1476
7664,1615
7665,1770
7666,1831
7667,1872
7668,1840
7669,1810
7670,1744
7671,1554
7672,1450
7673,1232
7674,909
7675,702
7676,479
7677,364
7678,274
7679,253
7680,261
7681,236
7682,274
7683,258
7684,261
7685,282
7686,267
7687,348
7688,338
7689,397
7690,545
7691,752
7692,979
7693,1155
7694,1311
7695,1456
7696,1488
7697,1770
7698,1855
7699,1899
7700,1929
7701,1855
7702,1760
7703,1643
7704,1470
7705,1363
7706,1036
7707,781
7708,526
7709,421
7710,368
7711,296
7712,295
7713,243
7714,269
7715,257
7716,242
7717,278
7718,289
7719,315
7720,432
7721,405
7722,571
7723,755
7724,971
7725,1183
7726,1327
7727,1433
7728,1558
7729,1671
7730,1775
7731,1857
7732,1895
7733,1865
7734,1811
7735,1703
7736,1523
7737,1427
7738,1165
7739,885
7740,618
7741,429
7742,326
7743,274
7744,238
7745,263
7746,267
7747,235
7748,295
7749,208
7750,334
7751,342
7752,325
7753,379
7754,495
7755,636
7756,954
7757,1107
7758,1270
7759,1422
7760,1515
7761,1596
7762,1678
7763,1777
7764,1827
7765,1838
7766,1882
7767,1767
7768,1670
7769,1485
7770,1423
7771,1073
7772,786
7773,549
7774,336
7775,286
7776,193
7777,240
7778,204
7779,240
7780,197
7781,192
7782,246
7783,278
7784,334
7785,361
7786,401
7787,474
7788,703
7789,903
7790,1103
7791,1276
7792,1399
7793,1520
7794,1671
7795,1718
7796,1829
7797,1855
7798,1855
7799,1794
7800,1744
7801,1653
7802,1475
7803,1415
7804,1104
7805,795
7806,552
7807,400
7808,321
7809,266
7810,316
7811,235
7812,267
7813,290
7814,288
7815,320
7816,339
7817,353
7818,438
7819,426
7820,576
7821,749
7822,983
7823,1133
7824,1319
7825,1479
7826,1618
7827,1744
7828,1813
7829,1852
7830,1834
7831,1807
7832,1712
7833,1590
7834,1486
7835,1333
7836,1022
7837,747
7838,528
7839,420
7840,307
7841,279
7842,249
7843,256
7844,261
7845,276
7846,309
7847,359
7848,365
7849,347
7850,453
7851,462
7852,553
7853,765
7854,971
7855,1195
7856,1403
7857,1598
7858,1721
7859,1793
7860,1811
7861,1777
7862,1744
7863,1676
7864,1535
7865,1482
7866,1260
7867,947
7868,694
7869,495
7870,393
7871,307
7872,283
7873,244
7874,242
7875,251
7876,272
7877,302
7878,338
7879,368
7880,400
7881,416
7882,448
7883,559
7884,769
7885,1047
7886,1297
7887,1523
7888,1681
7889,1751
7890,1771
7891,1761
7892,1709
7893,1633
7894,1530
7895,1463
7896,1304
7897,977
7898,722
7899,549
7900,415
7901,320
7902,256
7903,224
7904,219
7905,233
7906,262
7907,281
7908,320
7909,355
7910,397
7911,385
7912,496
7913,496
7914,693
7915,943
7916,1200
7917,1456
7918,1610
7919,1712
7920,1735
7921,1737
7922,1696
7923,1635
7924,1527
7925,1509
7926,1325
7927,1019
7928,750
7929,569
7930,432
7931,346
7932,279
7933,240
7934,229
7935,224
7936,241
7937,272
7938,304
7939,366
7940,370
7941,379
7942,445
7943,496
7944,702
7945,919
7946,1177
7947,1385
7948,1565
7949,1683
7950,1714
7951,1712
7952,1696
7953,1616
7954,1518
7955,1471
7956,1363
7957,1051
7958,760
7959,618
7960,414
7961,304
7962,251
7963,203
7964,195
7965,202
7966,214
7967,240
7968,288
7969,337
7970,366
7971,384
7972,454
7973,528
7974,576
7975,809
7976,1071
7977,1308
7978,1513
7979,1645
7980,1693
7981,1715
7982,1695
7983,1633
7984,1535
7985,1501
7986,1445
7987,1147
7988,854
7989,607
7990,444
7991,349
7992,272
7993,237
7994,221
7995,209
7996,232
7997,256
7998,287
7999,317
8000,347
8001,379
8002,416
8003,420
8004,476
8005,560
8006,801
8007,1038
8008,1284
8009,1518
8010,1678
8011,1763
8012,1808
8013,1757
8014,1705
8015,1648
8016,1535
8017,1502
8018,1425
8019,1088
8020,790
8021,562
8022,407
8023,304
8024,239
8025,239
8026,163
8027,191
8028,150
8029,185
8030,219
8031,263
8032,298
8033,352
8034,369
8035,463
8036,495
8037,555
8038,752
8039,957
8040,1152
8041,1302
8042,1437
8043,1617
8044,1712
8045,1744
8046,1716
8047,1699
8048,1611
8049,1535
8050,1535
8051,1327
8052,992
8053,688
8054,460
8055,324
8056,236
8057,92
8058,170
8059,133
8060,129
8061,121
8062,197
8063,167
8064,269
8065,320
8066,373
8067,415
8068,487
8069,501
8070,613
8071,848
8072,1045
8073,1200
8074,1300
8075,1392
8076,1426
8077,1494
8078,1522
8079,1648
8080,1633
8081,1658
8082,1584
8083,1605
8084,1504
8085,1456
8086,1131
8087,775
8088,485
8089,313
8090,178
8091,99
8092,48
8093,0
8094,45
8095,108
8096,106
8097,128
8098,224
8099,271
8100,317
8101,406
8102,437
8103,511
8104,573
8105,750
8106,934
8107,1082
8108,1210
8109,1313
8110,1386
8111,1383
8112,1413
8113,1403
8114,1445
8115,1408
8116,1409
8117,1355
8118,1391
8119,1415
8120,1385
8121,1264
8122,1346
8123,1264
8124,1053
8125,629
8126,368
8127,218
8128,113
8129,45
8130,27
8131,38
8132,58
8133,98
8134,157
8135,191
8136,206
8137,320
8138,377
8139,437
8140,464
8141,528
8142,687
8143,907
8144,1068
8145,1318
8146,1283
8147,1360
8148,1381
8149,1386
8150,1399
8151,1451
8152,1491
8153,1525
8154,1535
8155,1509
8156,1533
8157,1415
8158,1413
8159,1062
8160,743
8161,485
8162,317
8163,166
8164,118
8165,85
8166,96
8167,64
8168,106
8169,176
8170,196
8171,249
8172,383
8173,399
8174,416
8175,469
8176,546
8177,703
8178,937
8179,1091
8180,1188
8181,1335
8182,1390
8183,1442
8184,1513
8185,1585
8186,1647
8187,1681
8188,1651
8189,1598
8190,1562
8191,1574
8192,1431
8193,1075
8194,738
8195,483
8196,321
8197,226
8198,187
8199,124
8200,99
8201,133
8202,140
8203,196
8204,242
8205,282
8206,336
8207,401
8208,486
8209,488
8210,571
8211,687
8212,894
8213,1081
8214,1232
8215,1349
8216,1473
8217,1398
8218,1734
8219,1733
8220,1556
8221,1648
8222,1600
8223,1564
8224,1571
8225,1313
8226,967
8227,658
8228,447
8229,320
8230,224
8231,170
8232,176
8233,170
8234,149
8235,230
8236,245
8237,266
8238,292
8239,330
8240,428
8241,458
8242,527
8243,541
8244,694
8245,911
8246,1111
8247,1311
8248,1475
8249,1675
8250,1732
8251,1781
8252,1780
8253,1727
8254,1641
8255,1613
8256,1584
8257,1425
8258,1094
8259,796
8260,537
8261,405
8262,291
8263,255
8264,204
8265,205
8266,189
8267,194
8268,221
8269,242
8270,291
8271,335
8272,382
8273,448
8274,474
8275,506
8276,566
8277,752
8278,999
8279,1259
8280,1505
8281,1664
8282,1747
8283,1771
8284,1761
8285,1709
8286,1650
8287,1570
8288,1565
8289,1445
8290,1104
8291,786
8292,571
8293,423
8294,330
8295,263
8296,235
8297,197
8298,193
8299,204
8300,234
8301,246
8302,282
8303,329
8304,375
8305,455
8306,456
8307,501
8308,526
8309,737
8310,1015
8311,1295
8312,1525
8313,1659
8314,1734
8315,1746
8316,1727
8317,1659
8318,1584
8319,1535
8320,1483
8321,1315
8322,999
8323,724
8324,511
8325,390
8326,311
8327,243
8328,212
8329,197
8330,192
8331,217
8332,224
8333,258
8334,299
8335,350
8336,410
8337,448
8338,433
8339,563
8340,662
8341,962
8342,1261
8343,1490
8344,1630
8345,1705
8346,1716
8347,1680
8348,1622
8349,1558
8350,1535
8351,1500
8352,1333
8353,1002
8354,720
8355,523
8356,387
8357,303
8358,242
8359,208
8360,185
8361,180
8362,185
8363,207
8364,250
8365,285
8366,320
8367,381
8368,425
8369,432
8370,524
8371,541
8372,809
8373,1070
8374,1321
8375,1535
8376,1667
8377,1726
8378,1729
8379,1699
8380,1638
8381,1559
8382,1499
8383,1457
8384,1200
8385,877
8386,640
8387,432
8388,334
8389,256
8390,203
8391,187
8392,174
8393,174
8394,190
8395,210
8396,253
8397,287
8398,345
8399,401
8400,406
8401,448
8402,495
8403,613
8404,832
8405,1035
8406,1218
8407,1395
8408,1567
8409,1696
8410,1737
8411,1745
8412,1712
8413,1650
8414,1535
8415,1535
8416,1458
8417,1079
8418,775
8419,544
8420,352
8421,269
8422,197
8423,176
8424,167
8425,174
8426,162
8427,178
8428,208
8429,246
8430,306
8431,337
8432,394
8433,393
8434,458
8435,480
8436,635
8437,836
8438,1035
8439,1183
8440,1306
8441,1424
8442,1531
8443,1645
8444,1722
8445,1728
8446,1709
8447,1647
8448,1557
8449,1490
8450,1483
8451,1135
8452,789
8453,545
8454,374
8455,259
8456,210
8457,144
8458,176
8459,160
8460,173
8461,189
8462,208
8463,258
8464,274
8465,321
8466,377
8467,399
8468,445
8469,496
8470,555
8471,769
8472,989
8473,1168
8474,1347
8475,1516
8476,1648
8477,1715
8478,1686
8479,1699
8480,1619
8481,1535
8482,1515
8483,1451
8484,1136
8485,784
8486,546
8487,368
8488,240
8489,235
8490,146
8491,151
8492,147
8493,172
8494,197
8495,245
8496,198
8497,310
8498,316
8499,379
8500,389
8501,469
8502,496
8503,678
8504,876
8505,1087
8506,1279
8507,1442
8508,1628
8509,1710
8510,1763
8511,1755
8512,1687
8513,1616
8514,1505
8515,1432
8516,1306
8517,945
8518,697
8519,408
8520,361
8521,262
8522,237
8523,183
8524,186
8525,209
8526,241
8527,260
8528,295
8529,341
8530,324
8531,394
8532,384
8533,431
8534,482
8535,599
8536,830
8537,1047
8538,1221
8539,1418
8540,1602
8541,1698
8542,1729
8543,1729
8544,1669
8545,1638
8546,1569
8547,1445
8548,1429
8549,1059
8550,777
8551,588
8552,401
8553,329
8554,266
8555,242
8556,259
8557,189
8558,251
8559,293
8560,321
8561,340
8562,353
8563,382
8564,405
8565,443
8566,499
8567,666
8568,912
8569,1093
8570,1263
8571,1418
8572,1594
8573,1727
8574,1722
8575,1791
8576,1719
8577,1669
8578,1520
8579,1434
8580,1377
8581,1038
8582,750
8583,561
8584,394
8585,354
8586,269
8587,256
8588,285
8589,290
8590,307
8591,325
8592,325
8593,369
8594,405
8595,398
8596,439
8597,502
8598,681
8599,835
8600,1149
8601,1360
8602,1523
8603,1673
8604,1728
8605,1769
8606,1715
8607,1664
8608,1566
8609,1454
8610,1376
8611,1185
8612,890
8613,653
8614,511
8615,385
8616,355
8617,299
8618,268
8619,305
8620,287
8621,304
8622,378
8623,336
8624,384
8625,418
8626,429
8627,449
8628,607
8629,895
8630,1193
8631,1458
8632,1634
8633,1741
8634,1793
8635,1787
8636,1776
8637,1707
8638,1631
8639,1526
8640,1433
8641,1341
8642,1023
8643,784
8644,606
8645,469
8646,418
8647,359
8648,331
8649,312
8650,304
8651,352
8652,324
8653,395
8654,412
8655,413
8656,455
8657,447
8658,692
8659,983
8660,1275
8661,1461
8662,1601
8663,1679
8664,1668
8665,1719
8666,1686
8667,1616
8668,1535
8669,1438
8670,1367
8671,1072
8672,861
8673,620
8674,465
8675,449
8676,405
8677,352
8678,358
8679,395
8680,354
8681,374
8682,400
8683,336
8684,485
8685,447
8686,694
8687,1069
8688,1328
8689,1595
8690,1723
8691,1746
8692,1744
8693,1799
8694,1775
8695,1648
8696,1574
8697,1409
8698,1390
8699,1142
8700,869
8701,715
8702,627
8703,487
8704,391
8705,354
8706,304
8707,339
8708,343
8709,356
8710,365
8711,348
8712,450
8713,466
8714,813
8715,1072
8716,1303
8717,1453
8718,1535
8719,1621
8720,1630
8721,1609
8722,1565
8723,1515
8724,1392
8725,1257
8726,1195
8727,921
8728,711
8729,562
8730,432
8731,395
8732,356
8733,326
8734,339
8735,336
8736,353
8737,379
8738,413
8739,411
8740,531
8741,839
8742,1126
8743,1339
8744,1481
8745,1587
8746,1602
8747,1634
8748,1621
8749,1567
8750,1483
8751,1390
8752,1364
8753,1142
8754,848
8755,631
8756,479
8757,368
8758,304
8759,251
8760,250
8761,240
8762,229
8763,320
8764,354
8765,368
8766,404
8767,460
8768,598
8769,919
8770,1194
8771,1360
8772,1491
8773,1581
8774,1584
8775,1584
8776,1557
8777,1489
8778,1419
8779,1344
8780,1264
8781,943
8782,699
8783,539
8784,407
8785,321
8786,281
8787,259
8788,239
8789,251
8790,265
8791,310
8792,348
8793,384
8794,418
8795,429
8796,464
8797,710
8798,1031
8799,1280
8800,1478
8801,1593
8802,1648
8803,1679
8804,1675
8805,1627
8806,1535
8807,1446
8808,1458
8809,1258
8810,971
8811,688
8812,511
8813,373
8814,300
8815,252
8816,221
8817,225
8818,227
8819,236
8820,268
8821,336
8822,357
8823,368
8824,401
8825,464
8826,464
8827,675
8828,944
8829,1229
8830,1424
8831,1556
8832,1645
8833,1657
8834,1639
8835,1616
8836,1535
8837,1456
8838,1467
8839,1193
8840,867
8841,606
8842,449
8843,335
8844,226
8845,206
8846,177
8847,180
8848,187
8849,215
8850,257
8851,301
8852,347
8853,390
8854,387
8855,458
8856,529
8857,643
8858,909
8859,1162
8860,1374
8861,1510
8862,1644
8863,1663
8864,1651
8865,1606
8866,1555
8867,1472
8868,1392
8869,1258
8870,907
8871,645
8872,442
8873,334
8874,234
8875,191
8876,160
8877,155
8878,175
8879,199
8880,250
8881,277
8882,323
8883,370
8884,354
8885,431
8886,473
8887,599
8888,851
8889,1134
8890,1337
8891,1520
8892,1614
8893,1647
8894,1661
8895,1622
8896,1563
8897,1486
8898,1483
8899,1323
8900,954
8901,655
8902,440
8903,304
8904,208
8905,170
8906,114
8907,112
8908,135
8909,150
8910,174
8911,184
8912,245
8913,311
8914,358
8915,350
8916,416
8917,441
8918,503
8919,787
8920,1059
8921,1286
8922,1473
8923,1584
8924,1647
8925,1653
8926,1627
8927,1573
8928,1488
8929,1488
8930,1418
8931,1071
8932,708
8933,455
8934,282
8935,203
8936,133
8937,94
8938,99
8939,78
8940,112
8941,108
8942,161
8943,192
8944,258
8945,286
8946,343
8947,368
8948,405
8949,487
8950,499
8951,729
8952,984
8953,1230
8954,1402
8955,1535
8956,1605
8957,1643
8958,1590
8959,1535
8960,1484
8961,1474
8962,1446
8963,1103
8964,782
8965,481
8966,314
8967,207
8968,145
8969,94
8970,65
8971,46
8972,75
8973,118
8974,124
8975,176
8976,222
8977,277
8978,338
8979,393
8980,421
8981,496
8982,551
8983,876
8984,1131
8985,1359
8986,1478
8987,1535
8988,1577
8989,1562
8990,1531
8991,1503
8992,1494
8993,1486
8994,1239
8995,880
8996,589
8997,391
8998,250
8999,158
9000,109
9001,64
9002,169
9003,73
9004,54
9005,175
9006,137
9007,176
9008,240
9009,195
9010,349
9011,417
9012,442
9013,637
9014,928
9015,1183
9016,1357
9017,1463
9018,1519
9019,1535
9020,1512
9021,1449
9022,1430
9023,1413
9024,1392
9025,1033
9026,723
9027,454
9028,352
9029,209
9030,146
9031,111
9032,50
9033,85
9034,80
9035,121
9036,114
9037,120
9038,200
9039,245
9040,260
9041,407
9042,427
9043,630
9044,934
9045,1150
9046,1322
9047,1456
9048,1439
9049,1475
9050,1461
9051,1417
9052,1438
9053,1425
9054,1305
9055,979
9056,688
9057,448
9058,341
9059,224
9060,179
9061,144
9062,144
9063,80
9064,134
9065,133
9066,177
9067,224
9068,271
9069,322
9070,374
9071,471
9072,499
9073,557
9074,871
9075,1134
9076,1312
9077,1458
9078,1507
9079,1520
9080,1496
9081,1495
9082,1385
9083,1456
9084,1321
9085,957
9086,667
9087,452
9088,316
9089,206
9090,147
9091,109
9092,80
9093,48
9094,113
9095,107
9096,114
9097,183
9098,243
9099,263
9100,363
9101,450
9102,500
9103,526
9104,715
9105,893
9106,1093
9107,1270
9108,1423
9109,1563
9110,1630
9111,1624
9112,1569
9113,1533
9114,1535
9115,1415
9116,1392
9117,1017
9118,720
9119,454
9120,302
9121,173
9122,157
9123,80
9124,115
9125,112
9126,128
9127,94
9128,157
9129,195
9130,241
9131,355
9132,386
9133,443
9134,485
9135,598
9136,777
9137,949
9138,1114
9139,1199
9140,1273
9141,1367
9142,1435
9143,1509
9144,1578
9145,1525
9146,1561
9147,1535
9148,1503
9149,1491
9150,1244
9151,863
9152,576
9153,381
9154,233
9155,128
9156,69
9157,66
9158,54
9159,128
9160,109
9161,144
9162,208
9163,240
9164,324
9165,403
9166,462
9167,482
9168,566
9169,742
9170,964
9171,1083
9172,1172
9173,1274
9174,1339
9175,1445
9176,1506
9177,1566
9178,1522
9179,1505
9180,1486
9181,1466
9182,1392
9183,1037
9184,692
9185,466
9186,294
9187,208
9188,127
9189,110
9190,106
9191,112
9192,119
9193,166
9194,202
9195,245
9196,331
9197,394
9198,458
9199,501
9200,528
9201,705
9202,883
9203,1054
9204,1173
9205,1237
9206,1291
9207,1341
9208,1392
9209,1442
9210,1514
9211,1535
9212,1597
9213,1466
9214,1451
9215,1424
9216,1255
9217,895
9218,618
9219,416
9220,268
9221,180
9222,129
9223,97
9224,101
9225,127
9226,144
9227,155
9228,233
9229,293
9230,384
9231,307
9232,459
9233,466
9234,546
9235,731
9236,911
9237,1062
9238,1187
9239,1253
9240,1310
9241,1328
9242,1343
9243,1371
9244,1429
9245,1478
9246,1488
9247,1463
9248,1428
9249,1370
9250,1310
9251,976
9252,676
9253,452
9254,299
9255,208
9256,130
9257,99
9258,118
9259,111
9260,160
9261,185
9262,225
9263,279
9264,358
9265,400
9266,446
9267,489
9268,504
9269,657
9270,857
9271,1011
9272,1151
9273,1219
9274,1285
9275,1307
9276,1326
9277,1355
9278,1407
9279,1454
9280,1481
9281,1473
9282,1425
9283,1409
9284,1371
9285,1116
9286,785
9287,543
9288,359
9289,229
9290,153
9291,117
9292,101
9293,122
9294,132
9295,173
9296,177
9297,270
9298,320
9299,372
9300,361
9301,409
9302,494
9303,622
9304,817
9305,958
9306,1130
9307,1206
9308,1275
9309,1296
9310,1326
9311,1360
9312,1413
9313,1479
9314,1515
9315,1476
9316,1410
9317,1419
9318,1366
9319,1155
9320,828
9321,559
9322,359
9323,247
9324,174
9325,157
9326,120
9327,127
9328,154
9329,186
9330,246
9331,256
9332,348
9333,385
9334,419
9335,465
9336,511
9337,657
9338,858
9339,1007
9340,1143
9341,1230
9342,1295
9343,1321
9344,1335
9345,1323
9346,1332
9347,1319
9348,1371
9349,1407
9350,1413
9351,1373
9352,1407
9353,1370
9354,1120
9355,806
9356,538
9357,375
9358,264
9359,176
9360,129
9361,112
9362,140
9363,160
9364,189
9365,236
9366,297
9367,368
9368,378
9369,432
9370,475
9371,529
9372,720
9373,902
9374,1088
9375,1182
9376,1255
9377,1307
9378,1342
9379,1358
9380,1338
9381,1385
9382,1266
9383,1265
9384,1242
9385,1181
9386,1095
9387,967
9388,850
9389,686
9390,595
9391,502
9392,434
9393,381
9394,373
9395,314
9396,391
9397,352
9398,370
9399,400
9400,481
9401,469
9402,511
9403,675
9404,880
9405,1059
9406,1217
9407,1319
9408,1376
9409,1408
9410,1407
9411,1402
9412,1362
9413,1343
9414,1270
9415,1199
9416,1094
9417,864
9418,671
9419,524
9420,493
9421,448
9422,545
9423,505
9424,528
9425,528
9426,592
9427,602
9428,688
9429,655
9430,704
9431,759
9432,855
9433,974
9434,1086
9435,1170
9436,1247
9437,1282
9438,1331
9439,1321
9440,1296
9441,1232
9442,1228
9443,1191
9444,976
9445,771
9446,591
9447,455
9448,368
9449,361
9450,331
9451,358
9452,336
9453,349
9454,397
9455,397
9456,398
9457,594
9458,937
9459,1177
9460,1366
9461,1531
9462,1599
9463,1612
9464,1616
9465,1586
9466,1534
9467,1442
9468,1360
9469,1323
9470,1102
9471,847
9472,687
9473,530
9474,461
9475,397
9476,345
9477,336
9478,356
9479,389
9480,382
9481,354
9482,394
9483,418
9484,431
9485,465
9486,527
9487,720
9488,955
9489,1138
9490,1334
9491,1513
9492,1664
9493,1785
9494,1849
9495,1829
9496,1793
9497,1717
9498,1508
9499,1503
9500,1434
9501,1195
9502,875
9503,656
9504,524
9505,389
9506,363
9507,307
9508,323
9509,306
9510,347
9511,345
9512,341
9513,363
9514,407
9515,433
9516,495
9517,493
9518,656
9519,885
9520,1085
9521,1211
9522,1323
9523,1328
9524,1466
9525,1573
9526,1659
9527,1711
9528,1730
9529,1746
9530,1686
9531,1581
9532,1440
9533,1392
9534,1157
9535,880
9536,601
9537,464
9538,319
9539,259
9540,266
9541,289
9542,336
9543,315
9544,336
9545,367
9546,395
9547,384
9548,391
9549,431
9550,450
9551,672
9552,846
9553,1067
9554,1215
9555,1295
9556,1388
9557,1434
9558,1466
9559,1589
9560,1597
9561,1647
9562,1680
9563,1686
9564,1636
9565,1470
9566,1446
9567,1325
9568,1012
9569,731
9570,496
9571,385
9572,310
9573,256
9574,240
9575,251
9576,288
9577,331
9578,322
9579,337
9580,317
9581,385
9582,425
9583,411
9584,491
9585,690
9586,880
9587,1088
9588,1229
9589,1337
9590,1402
9591,1425
9592,1468
9593,1455
9594,1471
9595,1520
9596,1591
9597,1611
9598,1602
9599,1535
9600,1399
9601,1451
9602,1221
9603,922
9604,674
9605,463
9606,415
9607,201
9608,215
9609,182
9610,166
9611,193
9612,246
9613,317
9614,357
9615,367
9616,192
9617,409
9618,474
9619,486
9620,624
9621,832
9622,1037
9623,1117
9624,1278
9625,1347
9626,1382
9627,1407
9628,1409
9629,1393
9630,1403
9631,1425
9632,1473
9633,1491
9634,1484
9635,1429
9636,1384
9637,1297
9638,1105
9639,805
9640,567
9641,375
9642,272
9643,192
9644,147
9645,166
9646,194
9647,221
9648,266
9649,288
9650,327
9651,341
9652,335
9653,418
9654,427
9655,480
9656,687
9657,897
9658,1083
9659,1190
9660,1264
9661,1332
9662,1363
9663,1342
9664,1381
9665,1378
9666,1424
9667,1474
9668,1490
9669,1487
9670,1447
9671,1362
9672,1315
9673,1138
9674,812
9675,567
9676,361
9677,255
9678,181
9679,128
9680,119
9681,137
9682,176
9683,208
9684,272
9685,309
9686,336
9687,367
9688,396
9689,430
9690,492
9691,705
9692,879
9693,1068
9694,1182
9695,1255
9696,1313
9697,1334
9698,1367
9699,1356
9700,1342
9701,1326
9702,1344
9703,1406
9704,1427
9705,1388
9706,1322
9707,1267
9708,1219
9709,909
9710,656
9711,466
9712,318
9713,226
9714,192
9715,147
9716,167
9717,176
9718,209
9719,264
9720,303
9721,343
9722,378
9723,417
9724,476
9725,481
9726,674
9727,861
9728,1036
9729,1159
9730,1245
9731,1294
9732,1332
9733,1353
9734,1355
9735,1298
9736,1279
9737,1253
9738,1265
9739,1171
9740,1139
9741,1120
9742,931
9743,784
9744,643
9745,509
9746,416
9747,336
9748,309
9749,272
9750,269
9751,277
9752,314
9753,359
9754,392
9755,393
9756,437
9757,490
9758,656
9759,880
9760,1040
9761,1147
9762,1247
9763,1319
9764,1343
9765,1325
9766,1335
9767,1291
9768,1284
9769,1275
9770,1187
9771,912
9772,731
9773,605
9774,575
9775,547
9776,565
9777,538
9778,567
9779,560
9780,556
9781,542
9782,540
9783,537
9784,538
9785,542
9786,554
9787,528
9788,591
9789,599
9790,721
9791,901
9792,1072
9793,1187
9794,1290
9795,1339
9796,1361
9797,1373
9798,1317
9799,1281
9800,1252
9801,1280
9802,1050
9803,815
9804,606
9805,467
9806,381
9807,363
9808,346
9809,421
9810,499
9811,496
9812,565
9813,595
9814,751
9815,899
9816,1055
9817,1133
9818,1178
9819,1196
9820,1191
9821,1200
9822,1168
9823,1205
9824,1168
9825,950
9826,738
9827,571
9828,435
9829,335
9830,259
9831,243
9832,241
9833,263
9834,272
9835,301
9836,337
9837,401
9838,377
9839,439
9840,457
9841,567
9842,806
9843,1049
9844,1280
9845,1474
9846,1584
9847,1643
9848,1634
9849,1617
9850,1584
9851,1530
9852,1485
9853,1348
9854,1034
9855,746
9856,556
9857,380
9858,231
9859,167
9860,196
9861,171
9862,218
9863,175
9864,187
9865,258
9866,304
9867,337
9868,346
9869,453
9870,299
9871,491
9872,595
9873,814
9874,946
9875,1119
9876,1178
9877,1265
9878,1333
9879,1392
9880,1453
9881,1495
9882,1572
9883,1529
9884,1468
9885,1424
9886,1446
9887,1203
9888,868
9889,574
9890,439
9891,256
9892,144
9893,79
9894,81
9895,99
9896,113
9897,135
9898,177
9899,195
9900,299
9901,336
9902,390
9903,449
9904,511
9905,586
9906,669
9907,853
9908,976
9909,1094
9910,1174
9911,1198
9912,1239
9913,1235
9914,1296
9915,1274
9916,1325
9917,1339
9918,1375
9919,1360
9920,1387
9921,1240
9922,892
9923,586
9924,405
9925,221
9926,139
9927,48
9928,18
9929,6
9930,47
9931,101
9932,89
9933,149
9934,173
9935,256
9936,320
9937,346
9938,448
9939,561
9940,592
9941,785
9942,934
9943,1061
9944,1114
9945,1174
9946,1171
9947,1280
9948,1239
9949,1268
9950,1199
9951,1288
9952,1287
9953,1299
9954,1328
9955,1339
9956,1181
9957,864
9958,557
9959,331
9960,190
9961,80
9962,47
9963,0
9964,0
9965,17
9966,35
9967,82
9968,144
9969,173
9970,240
9971,317
9972,386
9973,463
9974,463
9975,563
9976,768
9977,929
9978,1036
9979,1123
9980,1168
9981,1200
9982,1201
9983,1207
9984,1293
9985,1279
9986,1221
9987,1207
9988,1215
9989,1209
9990,1017
9991,774
9992,583
9993,417
9994,275
9995,210
9996,112
9997,116
9998,92
9999,97
10000,126
10001,146
10002,166
10003,249
10004,304
10005,393
10006,463
10007,495
10008,586
10009,784
10010,946
10011,1063
10012,1119
10013,1161
10014,1189
10015,1207
10016,1249
10017,1255
10018,1249
10019,1206
10020,900
10021,715
10022,496
10023,386
10024,325
10025,317
10026,351
10027,341
10028,347
10029,295
10030,289
10031,273
10032,310
10033,319
10034,358
10035,366
10036,400
10037,487
10038,554
10039,629
10040,594
10041,766
10042,961
10043,1101
10044,1171
10045,1227
10046,1262
10047,1229
10048,1287
10049,1287
10050,1233
10051,1268
10052,974
10053,715
10054,478
10055,337
10056,256
10057,146
10058,131
10059,127
10060,161
10061,170
10062,320
10063,425
10064,442
10065,607
10066,797
10067,944
10068,1045
10069,1162
10070,1134
10071,1175
10072,1197
10073,1216
10074,1230
10075,1216
10076,940
10077,690
10078,479
10079,304
10080,245
10081,173
10082,150
10083,122
10084,127
10085,138
10086,161
10087,173
10088,225
10089,262
10090,351
10091,397
10092,421
10093,480
10094,658
10095,855
10096,1019
10097,1163
10098,1270
10099,1409
10100,1527
10101,1592
10102,1599
10103,1535
10104,1482
10105,1494
10106,1427
10107,1185
10108,817
10109,531
10110,337
10111,198
10112,116
10113,76
10114,54
10115,73
10116,78
10117,111
10118,139
10119,209
10120,228
10121,297
10122,356
10123,393
10124,414
10125,510
10126,608
10127,806
10128,970
10129,1099
10130,1181
10131,1241
10132,1271
10133,1276
10134,1275
10135,1264
10136,1263
10137,1247
10138,1238
10139,1225
10140,1213
10141,1193
10142,1090
10143,806
10144,555
10145,368
10146,249
10147,157
10148,107
10149,62
10150,65
10151,102
10152,317
10153,147
10154,212
10155,257
10156,320
10157,391
10158,391
10159,467
10160,567
10161,785
10162,935
10163,1088
10164,1186
10165,1219
10166,1268
10167,1291
10168,1282
10169,1247
10170,1247
10171,1227
10172,1115
10173,816
10174,608
10175,483
10176,454
10177,405
10178,392
10179,359
10180,333
10181,306
10182,292
10183,285
10184,276
10185,272
10186,319
10187,347
10188,405
10189,421
10190,445
10191,450
10192,592
10193,799
10194,992
10195,1136
10196,1249
10197,1303
10198,1323
10199,1322
10200,1306
10201,1277
10202,1290
10203,1265
10204,1040
10205,743
10206,511
10207,361
10208,257
10209,201
10210,171
10211,182
10212,209
10213,336
10214,349
10215,432
10216,473
10217,699
10218,886
10219,1009
10220,1104
10221,1157
10222,1169
10223,1179
10224,1168
10225,1151
10226,1165
10227,1104
10228,799
10229,581
10230,426
10231,304
10232,227
10233,166
10234,162
10235,129
10236,163
10237,160
10238,161
10239,224
10240,258
10241,315
10242,353
10243,385
10244,388
10245,450
10246,663
10247,880
10248,1072
10249,1235
10250,1411
10251,1563
10252,1619
10253,1652
10254,1627
10255,1568
10256,1471
10257,1450
10258,1357
10259,961
10260,651
10261,410
10262,275
10263,176
10264,118
10265,109
10266,91
10267,114
10268,129
10269,145
10270,189
10271,223
10272,267
10273,342
10274,370
10275,403
10276,422
10277,492
10278,713
10279,905
10280,1066
10281,1173
10282,1241
10283,1310
10284,1347
10285,1396
10286,1455
10287,1514
10288,1474
10289,1456
10290,1366
10291,1383
10292,1121
10293,755
10294,511
10295,310
10296,192
10297,144
10298,80
10299,111
10300,80
10301,112
10302,143
10303,199
10304,214
10305,187
10306,272
10307,323
10308,358
10309,407
10310,455
10311,674
10312,897
10313,1041
10314,1181
10315,1249
10316,1273
10317,1307
10318,1307
10319,1311
10320,1317
10321,1353
10322,1367
10323,1357
10324,1331
10325,1251
10326,1279
10327,1053
10328,739
10329,464
10330,322
10331,234
10332,100
10333,73
10334,82
10335,116
10336,148
10337,186
10338,212
10339,218
10340,287
10341,326
10342,369
10343,356
10344,414
10345,545
10346,784
10347,979
10348,1110
10349,1235
10350,1292
10351,1327
10352,1435
10353,1359
10354,1345
10355,1271
10356,1232
10357,1182
10358,1168
10359,1072
10360,934
10361,752
10362,598
10363,483
10364,387
10365,312
10366,282
10367,284
10368,245
10369,272
10370,277
10371,302
10372,345
10373,316
10374,359
10375,426
10376,525
10377,747
10378,946
10379,1104
10380,1227
10381,1281
10382,1339
10383,1366
10384,1335
10385,1341
10386,1303
10387,1232
10388,1223
10389,1130
10390,853
10391,663
10392,557
10393,491
10394,465
10395,422
10396,441
10397,422
10398,403
10399,394
10400,414
10401,366
10402,368
10403,379
10404,351
10405,359
10406,400
10407,403
10408,470
10409,695
10410,920
10411,1110
10412,1264
10413,1374
10414,1455
10415,1461
10416,1451
10417,1425
10418,1411
10419,1321
10420,1250
10421,1200
10422,877
10423,647
10424,462
10425,356
10426,353
10427,288
10428,331
10429,383
10430,397
10431,462
10432,401
10433,459
10434,464
10435,467
10436,470
10437,541
10438,509
10439,527
10440,511
10441,551
10442,547
10443,647
10444,867
10445,1057
10446,1230
10447,1296
10448,1367
10449,1401
10450,1427
10451,1417
10452,1360
10453,1273
10454,1246
10455,1104
10456,789
10457,592
10458,404
10459,332
10460,256
10461,243
10462,289
10463,323
10464,389
10465,406
10466,395
10467,430
10468,475
10469,594
10470,808
10471,912
10472,1051
10473,1107
10474,1175
10475,1238
10476,1262
10477,1251
10478,1296
10479,1188
10480,1106
10481,1202
10482,989
10483,710
10484,483
10485,336
10486,240
10487,225
10488,190
10489,128
10490,174
10491,208
10492,240
10493,259
10494,250
10495,282
10496,384
10497,615
10498,898
10499,1121
10500,1243
10501,1375
10502,1423
10503,1442
10504,1425
10505,1405
10506,1354
10507,1271
10508,1255
10509,1009
10510,720
10511,528
10512,394
10513,309
10514,240
10515,160
10516,146
10517,131
10518,139
10519,175
10520,171
10521,254
10522,290
10523,330
10524,368
10525,383
10526,435
10527,448
10528,722
10529,1038
10530,1273
10531,1455
10532,1483
10533,1619
10534,1653
10535,1620
10536,1535
10537,1461
10538,1374
10539,1326
10540,1074
10541,755
10542,524
10543,376
10544,271
10545,205
10546,196
10547,167
10548,153
10549,169
10550,194
10551,234
10552,270
10553,309
10554,335
10555,304
10556,406
10557,415
10558,511
10559,743
10560,976
10561,1131
10562,1245
10563,1335
10564,1438
10565,1495
10566,1584
10567,1599
10568,1583
10569,1535
10570,1447
10571,1424
10572,1271
10573,939
10574,625
10575,396
10576,257
10577,166
10578,103
10579,107
10580,75
10581,106
10582,107
10583,160
10584,186
10585,211
10586,253
10587,302
10588,327
10589,368
10590,353
10591,432
10592,489
10593,638
10594,849
10595,1007
10596,1135
10597,1210
10598,1288
10599,1359
10600,1422
10601,1456
10602,1471
10603,1430
10604,1326
10605,1331
10606,1189
10607,842
10608,526
10609,317
10610,176
10611,102
10612,37
10613,45
10614,64
10615,64
10616,115
10617,129
10618,176
10619,107
10620,278
10621,320
10622,305
10623,336
10624,357
10625,403
10626,624
10627,871
10628,1033
10629,1141
10630,1259
10631,1361
10632,1451
10633,1488
10634,1488
10635,1455
10636,1391
10637,1338
10638,1309
10639,965
10640,639
10641,372
10642,248
10643,143
10644,86
10645,51
10646,61
10647,64
10648,74
10649,134
10650,150
10651,177
10652,234
10653,263
10654,326
10655,343
10656,341
10657,425
10658,435
10659,663
10660,867
10661,1040
10662,1200
10663,1321
10664,1419
10665,1495
10666,1513
10667,1483
10668,1445
10669,1349
10670,1306
10671,1178
10672,831
10673,537
10674,329
10675,206
10676,125
10677,79
10678,69
10679,64
10680,83
10681,128
10682,176
10683,179
10684,228
10685,287
10686,338
10687,342
10688,395
10689,394
10690,478
10691,703
10692,901
10693,1065
10694,1190
10695,1262
10696,1346
10697,1426
10698,1478
10699,1475
10700,1432
10701,1359
10702,1335
10703,1263
10704,905
10705,608
10706,368
10707,219
10708,127
10709,77
10710,66
10711,55
10712,73
10713,102
10714,128
10715,179
10716,234
10717,261
10718,333
10719,361
10720,384
10721,417
10722,528
10723,751
10724,930
10725,1090
10726,1149
10727,1203
10728,1265
10729,1328
10730,1373
10731,1411
10732,1392
10733,1339
10734,1318
10735,1338
10736,980
10737,642
10738,391
10739,249
10740,125
10741,53
10742,64
10743,95
10744,59
10745,80
10746,79
10747,139
10748,208
10749,251
10750,319
10751,384
10752,368
10753,460
10754,652
10755,888
10756,1013
10757,1113
10758,1213
10759,1285
10760,1331
10761,1374
10762,1286
10763,1371
10764,1332
10765,1335
10766,1317
10767,926
10768,607
10769,339
10770,225
10771,106
10772,64
10773,0
10774,19
10775,41
10776,80
10777,89
10778,145
10779,176
10780,227
10781,298
10782,357
10783,432
10784,436
10785,546
10786,682
10787,857
10788,969
10789,1105
10790,1242
10791,1334
10792,1399
10793,1396
10794,1345
10795,1374
10796,1306
10797,1296
10798,934
10799,592
10800,304
10801,208
10802,139
10803,64
10804,38
10805,37
10806,49
10807,55
10808,48
10809,81
10810,125
10811,225
10812,218
10813,267
10814,351
10815,429
10816,495
10817,557
10818,688
10819,841
10820,1007
10821,1107
10822,1242
10823,1298
10824,1327
10825,1312
10826,1407
10827,1363
10828,1281
10829,961
10830,605
10831,384
10832,260
10833,145
10834,67
10835,53
10836,51
10837,52
10838,69
10839,83
10840,112
10841,135
10842,192
10843,234
10844,234
10845,338
10846,367
10847,415
10848,455
10849,543
10850,763
10851,931
10852,1070
10853,1185
10854,1254
10855,1328
10856,1344
10857,1361
10858,1359
10859,1353
10860,1365
10861,1142
10862,763
10863,485
10864,254
10865,110
10866,73
10867,23
10868,18
10869,18
10870,31
10871,48
10872,66
10873,97
10874,114
10875,203
10876,249
10877,371
10878,396
10879,448
10880,534
10881,674
10882,855
10883,1041
10884,1136
10885,1181
10886,1217
10887,1195
10888,1191
10889,1297
10890,1270
10891,1296
10892,1311
10893,1246
10894,1280
10895,935
10896,659
10897,429
10898,283
10899,176
10900,68
10901,80
10902,16
10903,44
10904,49
10905,128
10906,96
10907,191
10908,304
10909,286
10910,347
10911,416
10912,463
10913,535
10914,721
10915,881
10916,1034
10917,1082
10918,1129
10919,1137
10920,1161
10921,1174
10922,1200
10923,1195
10924,1088
10925,839
10926,656
10927,528
10928,446
10929,384
10930,325
10931,298
10932,287
10933,294
10934,276
10935,289
10936,317
10937,356
10938,400
10939,447
10940,471
10941,498
10942,606
10943,831
10944,981
10945,1086
10946,1185
10947,1225
10948,1200
10949,1223
10950,1227
10951,1252
10952,1247
10953,1065
10954,800
10955,613
10956,479
10957,423
10958,364
10959,368
10960,365
10961,391
10962,400
10963,429
10964,461
10965,496
10966,552
10967,566
10968,601
10969,601
10970,712
10971,875
10972,1001
10973,1107
10974,1175
10975,1219
10976,1249
10977,1241
10978,1239
10979,1261
10980,1232
10981,986
10982,759
10983,574
10984,435
10985,377
10986,319
10987,304
10988,289
10989,300
10990,324
10991,336
10992,395
10993,443
10994,509
10995,511
10996,727
10997,969
10998,1114
10999,1215
11000,1293
11001,1318
11002,1305
11003,1311
11004,1293
11005,1275
11006,1289
11007,1053
11008,798
11009,622
11010,504
11011,425
11012,377
11013,337
11014,306
11015,325
11016,317
11017,346
11018,383
11019,397
11020,454
11021,478
11022,450
11023,542
11024,629
11025,809
11026,979
11027,1113
11028,1195
11029,1244
11030,1297
11031,1334
11032,1343
11033,1338
11034,1320
11035,1306
11036,1296
11037,1311
11038,1113
11039,839
11040,641
11041,466
11042,384
11043,304
11044,270
11045,253
11046,263
11047,285
11048,302
11049,361
11050,387
11051,432
11052,478
11053,522
11054,541
11055,641
11056,834
11057,986
11058,1104
11059,1170
11060,1217
11061,1234
11062,1226
11063,1206
11064,1204
11065,1234
11066,1113
11067,880
11068,701
11069,599
11070,543
11071,476
11072,436
11073,409
11074,400
11075,390
11076,395
11077,405
11078,404
11079,448
11080,477
11081,487
11082,523
11083,561
11084,592
11085,811
11086,986
11087,1120
11088,1205
11089,1261
11090,1289
11091,1275
11092,1235
11093,1229
11094,1203
11095,1121
11096,858
11097,624
11098,470
11099,399
11100,346
11101,294
11102,285
11103,291
11104,319
11105,372
11106,432
11107,467
11108,491
11109,670
11110,878
11111,1042
11112,1141
11113,1203
11114,1283
11115,1264
11116,1254
11117,1237
11118,1233
11119,1211
11120,963
11121,706
11122,560
11123,461
11124,389
11125,325
11126,289
11127,278
11128,276
11129,293
11130,326
11131,368
11132,385
11133,401
11134,426
11135,414
11136,451
11137,557
11138,776
11139,951
11140,1096
11141,1189
11142,1279
11143,1338
11144,1392
11145,1408
11146,1411
11147,1374
11148,1313
11149,1285
11150,1181
11151,882
11152,659
11153,479
11154,384
11155,342
11156,272
11157,258
11158,277
11159,300
11160,320
11161,338
11162,336
11163,326
11164,390
11165,367
11166,439
11167,448
11168,560
11169,703
11170,955
11171,1119
11172,1187
11173,1257
11174,1293
11175,1314
11176,1275
11177,1255
11178,1155
11179,1230
11180,1085
11181,839
11182,719
11183,609
11184,537
11185,478
11186,443
11187,413
11188,418
11189,427
11190,411
11191,407
11192,234
11193,425
11194,415
11195,464
11196,481
11197,625
11198,832
11199,1023
11200,1164
11201,1239
11202,1301
11203,1299
11204,1303
11205,1274
11206,1219
11207,1230
11208,1097
11209,867
11210,674
11211,529
11212,419
11213,380
11214,343
11215,345
11216,334
11217,361
11218,367
11219,394
11220,442
11221,433
11222,615
11223,848
11224,1015
11225,1158
11226,1245
11227,1295
11228,1308
11229,1347
11230,1313
11231,1245
11232,1257
11233,1127
11234,876
11235,695
11236,573
11237,458
11238,416
11239,365
11240,351
11241,339
11242,378
11243,367
11244,370
11245,211
11246,313
11247,462
11248,416
11249,451
11250,557
11251,750
11252,947
11253,1094
11254,1191
11255,1294
11256,1311
11257,1314
11258,1319
11259,1296
11260,1264
11261,1214
11262,1154
11263,1142
11264,987
11265,791
11266,640
11267,546
11268,395
11269,393
11270,355
11271,338
11272,170
11273,364
11274,402
11275,372
11276,395
11277,394
11278,409
11279,496
11280,672
11281,877
11282,1047
11283,1177
11284,1248
11285,1303
11286,1303
11287,1318
11288,1241
11289,1194
11290,1166
11291,1058
11292,861
11293,641
11294,551
11295,420
11296,366
11297,387
11298,417
11299,379
11300,462
11301,405
11302,482
11303,496
11304,547
11305,714
11306,860
11307,980
11308,1136
11309,1167
11310,1241
11311,1206
11312,1189
11313,1193
11314,1136
11315,1138
11316,1005
11317,774
11318,611
11319,511
11320,385
11321,354
11322,333
11323,333
11324,318
11325,304
11326,365
11327,397
11328,378
11329,414
11330,421
11331,429
11332,501
11333,742
11334,979
11335,1154
11336,1299
11337,1366
11338,1405
11339,1393
11340,1361
11341,1323
11342,1314
11343,1271
11344,993
11345,769
11346,606
11347,464
11348,359
11349,311
11350,288
11351,269
11352,254
11353,273
11354,289
11355,309
11356,342
11357,379
11358,400
11359,397
11360,486
11361,483
11362,642
11363,837
11364,995
11365,1122
11366,1163
11367,1258
11368,1246
11369,1259
11370,1225
11371,1183
11372,1171
11373,1195
11374,1111
11375,903
11376,733
11377,606
11378,495
11379,414
11380,373
11381,338
11382,334
11383,321
11384,337
11385,368
11386,389
11387,406
11388,443
11389,449
11390,478
11391,561
11392,753
11393,943
11394,1086
11395,1169
11396,1205
11397,1232
11398,1232
11399,1211
11400,1174
11401,1215
11402,1010
11403,804
11404,607
11405,478
11406,413
11407,354
11408,311
11409,306
11410,330
11411,351
11412,365
11413,430
11414,385
11415,528
11416,657
11417,896
11418,1073
11419,1190
11420,1259
11421,1297
11422,1293
11423,1282
11424,1245
11425,1271
11426,1203
11427,969
11428,742
11429,591
11430,464
11431,397
11432,337
11433,320
11434,279
11435,306
11436,306
11437,336
11438,368
11439,384
11440,432
11441,449
11442,485
11443,459
11444,533
11445,741
11446,927
11447,1062
11448,1142
11449,1215
11450,1255
11451,1303
11452,1324
11453,1328
11454,1358
11455,1351
11456,1311
11457,1260
11458,1182
11459,899
11460,675
11461,511
11462,383
11463,320
11464,297
11465,241
11466,239
11467,253
11468,286
11469,306
11470,363
11471,363
11472,419
11473,444
11474,445
11475,491
11476,610
11477,784
11478,960
11479,1078
11480,1139
11481,1188
11482,1213
11483,1243
11484,1223
11485,1189
11486,1168
11487,1099
11488,903
11489,718
11490,595
11491,545
11492,510
11493,490
11494,464
11495,464
11496,461
11497,459
11498,465
11499,471
11500,467
11501,494
11502,504
11503,524
11504,547
11505,528
11506,590
11507,779
11508,977
11509,1116
11510,1197
11511,1232
11512,1260
11513,1265
11514,1249
11515,1255
11516,1234
11517,1072
11518,830
11519,634
11520,502
11521,407
11522,368
11523,304
11524,301
11525,296
11526,311
11527,329
11528,362
11529,400
11530,454
11531,413
11532,496
11533,725
11534,976
11535,1155
11536,1283
11537,1346
11538,1385
11539,1375
11540,1338
11541,1299
11542,1314
11543,1262
11544,962
11545,729
11546,570
11547,442
11548,368
11549,308
11550,283
11551,272
11552,271
11553,287
11554,321
11555,337
11556,327
11557,421
11558,443
11559,465
11560,476
11561,493
11562,603
11563,787
11564,967
11565,1083
11566,1156
11567,1185
11568,1126
11569,1251
11570,1248
11571,1297
11572,1275
11573,1329
11574,1299
11575,1295
11576,1006
11577,745
11578,537
11579,390
11580,317
11581,286
11582,194
11583,144
11584,164
11585,190
11586,203
11587,219
11588,259
11589,320
11590,389
11591,409
11592,442
11593,480
11594,542
11595,740
11596,896
11597,1132
11598,1088
11599,1153
11600,1152
11601,1151
11602,1177
11603,1170
11604,961
11605,962
11606,749
11607,560
11608,438
11609,427
11610,431
11611,417
11612,402
11613,389
11614,398
11615,400
11616,375
11617,377
11618,435
11619,436
11620,455
11621,496
11622,560
11623,532
11624,618
11625,713
11626,923
11627,1008
11628,1113
11629,1134
11630,1170
11631,1200
11632,1189
11633,1194
11634,1171
11635,1023
11636,757
11637,592
11638,476
11639,334
11640,273
11641,239
11642,207
11643,260
11644,227
11645,240
11646,324
11647,436
11648,473
11649,528
11650,624
11651,877
11652,1059
11653,1140
11654,1216
11655,1200
11656,1247
11657,1306
11658,1302
11659,1263
11660,1061
11661,785
11662,637
11663,479
11664,359
11665,320
11666,286
11667,241
11668,239
11669,235
11670,256
11671,272
11672,300
11673,350
11674,372
11675,433
11676,523
11677,511
11678,615
11679,711
11680,875
11681,1009
11682,1087
11683,1152
11684,1199
11685,1221
11686,1242
11687,1289
11688,1293
11689,1328
11690,1292
11691,1295
11692,992
11693,713
11694,509
11695,381
11696,261
11697,206
11698,128
11699,171
11700,102
11701,169
11702,226
11703,240
11704,272
11705,281
11706,370
11707,417
11708,511
11709,510
11710,563
11711,735
11712,834
11713,964
11714,1040
11715,1067
11716,1141
11717,1184
11718,1169
11719,1210
11720,1169
11721,1061
11722,786
11723,627
11724,490
11725,444
11726,431
11727,368
11728,372
11729,338
11730,371
11731,334
11732,367
11733,373
11734,362
11735,418
11736,487
11737,494
11738,510
11739,544
11740,627
11741,673
11742,831
11743,959
11744,1054
11745,983
11746,1145
11747,1242
11748,1206
11749,1247
11750,1253
11751,1002
11752,769
11753,593
11754,400
11755,378
11756,308
11757,303
11758,272
11759,240
11760,267
11761,273
11762,296
11763,342
11764,400
11765,470
11766,528
11767,768
11768,970
11769,1105
11770,1212
11771,1254
11772,1271
11773,1271
11774,1257
11775,1287
11776,1255
11777,953
11778,752
11779,560
11780,430
11781,405
11782,309
11783,275
11784,246
11785,267
11786,257
11787,231
11788,277
11789,323
11790,353
11791,269
11792,496
11793,555
11794,525
11795,656
11796,853
11797,973
11798,1052
11799,1139
11800,1188
11801,1200
11802,1218
11803,1264
11804,1275
11805,1298
11806,1292
11807,1305
11808,1041
11809,747
11810,529
11811,371
11812,285
11813,223
11814,182
11815,163
11816,176
11817,192
11818,198
11819,240
11820,275
11821,314
11822,387
11823,413
11824,459
11825,501
11826,530
11827,728
11828,884
11829,1031
11830,1103
11831,1170
11832,1156
11833,1157
11834,1224
11835,1165
11836,1152
11837,1014
11838,784
11839,592
11840,528
11841,464
11842,450
11843,422
11844,400
11845,395
11846,383
11847,372
11848,384
11849,382
11850,398
11851,413
11852,449
11853,482
11854,481
11855,528
11856,564
11857,702
11858,879
11859,1045
11860,1136
11861,1187
11862,1219
11863,1218
11864,1219
11865,1233
11866,1191
11867,1136
11868,865
11869,643
11870,497
11871,395
11872,319
11873,272
11874,250
11875,272
11876,268
11877,307
11878,363
11879,432
11880,493
11881,576
11882,808
11883,960
11884,1085
11885,1163
11886,1201
11887,1223
11888,1219
11889,1210
11890,1213
11891,1200
11892,963
11893,720
11894,564
11895,459
11896,376
11897,336
11898,285
11899,263
11900,258
11901,273
11902,300
11903,327
11904,326
11905,368
11906,410
11907,446
11908,471
11909,480
11910,631
11911,830
11912,1017
11913,1161
11914,1279
11915,1354
11916,1348
11917,1341
11918,1309
11919,1269
11920,1292
11921,1091
11922,811
11923,560
11924,429
11925,323
11926,258
11927,225
11928,219
11929,212
11930,237
11931,248
11932,277
11933,333
11934,352
11935,414
11936,435
11937,473
11938,527
11939,560
11940,762
11941,912
11942,1238
11943,1126
11944,1170
11945,1191
11946,1186
11947,1183
11948,1168
11949,1187
11950,976
11951,736
11952,593
11953,511
11954,459
11955,416
11956,381
11957,344
11958,336
11959,320
11960,321
11961,336
11962,363
11963,383
11964,428
11965,457
11966,442
11967,529
11968,571
11969,768
11970,926
11971,1072
11972,1134
11973,1197
11974,1200
11975,1201
11976,1187
11977,1200
11978,1169
11979,878
11980,656
11981,511
11982,389
11983,318
11984,275
11985,249
11986,239
11987,269
11988,268
11989,301
11990,336
11991,363
11992,415
11993,432
11994,430
11995,481
11996,657
11997,874
11998,1065
11999,1214
12000,1315
12001,1344
12002,1347
12003,1317
12004,1268
12005,1245
12006,1232
12007,912
12008,685
12009,498
12010,387
12011,309
12012,288
12013,243
12014,254
12015,247
12016,249
12017,274
12018,323
12019,332
12020,361
12021,422
12022,426
12023,446
12024,539
12025,560
12026,774
12027,938
12028,1078
12029,1142
12030,1199
12031,1232
12032,1226
12033,1232
12034,1237
12035,1267
12036,1162
12037,890
12038,688
12039,549
12040,453
12041,409
12042,426
12043,420
12044,409
12045,384
12046,373
12047,425
12048,388
12049,432
12050,447
12051,433
12052,471
12053,485
12054,503
12055,570
12056,768
12057,976
12058,1106
12059,1231
12060,1259
12061,1296
12062,1296
12063,1280
12064,1235
12065,1215
12066,1206
12067,927
12068,707
12069,574
12070,422
12071,379
12072,336
12073,348
12074,309
12075,279
12076,345
12077,393
12078,351
12079,377
12080,438
12081,435
12082,659
12083,895
12084,1073
12085,1202
12086,1264
12087,1262
12088,1275
12089,1236
12090,1195
12091,1214
12092,1115
12093,835
12094,650
12095,496
12096,438
12097,421
12098,413
12099,383
12100,397
12101,429
12102,418
12103,407
12104,432
12105,389
12106,405
12107,486
12108,511
12109,624
12110,790
12111,976
12112,1122
12113,1187
12114,1230
12115,1256
12116,1279
12117,1270
12118,1255
12119,1279
12120,1330
12121,1298
12122,1258
12123,1210
12124,1192
12125,901
12126,657
12127,530
12128,418
12129,343
12130,336
12131,267
12132,339
12133,282
12134,347
12135,363
12136,391
12137,350
12138,445
12139,491
12140,624
12141,775
12142,955
12143,1072
12144,1168
12145,1229
12146,1250
12147,1242
12148,1216
12149,1204
12150,1199
12151,1108
12152,1001
12153,875
12154,777
12155,677
12156,597
12157,560
12158,483
12159,471
12160,441
12161,459
12162,448
12163,449
12164,441
12165,449
12166,451
12167,432
12168,501
12169,656
12170,849
12171,1056
12172,1151
12173,1252
12174,1283
12175,1296
12176,1296
12177,1290
12178,1234
12179,1187
12180,1150
12181,930
12182,802
12183,704
12184,685
12185,592
12186,557
12187,528
12188,541
12189,549
12190,511
12191,491
12192,485
12193,474
12194,505
12195,528
12196,511
12197,571
12198,740
12199,906
12200,1089
12201,1207
12202,1274
12203,1283
12204,1333
12205,1326
12206,1280
12207,1245
12208,1210
12209,1202
12210,998
12211,844
12212,728
12213,645
12214,602
12215,571
12216,528
12217,483
12218,427
12219,459
12220,451
12221,499
12222,527
12223,480
12224,489
12225,475
12226,551
12227,687
12228,871
12229,1079
12230,1102
12231,1278
12232,1294
12233,1306
12234,1311
12235,1287
12236,1226
12237,1201
12238,1167
12239,1011
12240,816
12241,774
12242,687
12243,722
12244,555
12245,528
12246,480
12247,436
12248,439
12249,426
12250,486
12251,503
12252,419
12253,486
12254,555
12255,509
12256,683
12257,876
12258,1008
12259,1139
12260,1200
12261,1239
12262,1253
12263,1237
12264,1189
12265,1205
12266,1197
12267,1130
12268,934
12269,782
12270,658
12271,576
12272,492
12273,432
12274,383
12275,368
12276,355
12277,351
12278,357
12279,400
12280,421
12281,400
12282,461
12283,457
12284,511
12285,679
12286,858
12287,987
12288,1083
12289,1159
12290,1186
12291,1200
12292,1189
12293,1135
12294,1184
12295,1072
12296,867
12297,699
12298,629
12299,560
12300,493
12301,432
12302,393
12303,366
12304,347
12305,351
12306,360
12307,350
12308,373
12309,426
12310,412
12311,446
12312,499
12313,482
12314,608
12315,812
12316,967
12317,1040
12318,1137
12319,1183
12320,1183
12321,1191
12322,1168
12323,1153
12324,1088
12325,821
12326,645
12327,560
12328,496
12329,449
12330,432
12331,385
12332,361
12333,350
12334,350
12335,343
12336,364
12337,385
12338,401
12339,446
12340,434
12341,428
12342,465
12343,553
12344,770
12345,919
12346,1050
12347,1137
12348,1194
12349,1200
12350,1219
12351,1201
12352,1193
12353,1200
12354,1021
12355,775
12356,601
12357,500
12358,449
12359,445
12360,416
12361,400
12362,352
12363,389
12364,378
12365,393
12366,397
12367,434
12368,448
12369,452
12370,479
12371,449
12372,511
12373,560
12374,656
12375,855
12376,995
12377,1091
12378,1162
12379,1197
12380,1201
12381,1183
12382,1172
12383,1158
12384,1023
12385,765
12386,586
12387,464
12388,368
12389,304
12390,279
12391,272
12392,304
12393,336
12394,398
12395,424
12396,447
12397,496
12398,593
12399,778
12400,926
12401,1040
12402,1095
12403,1139
12404,1152
12405,1118
12406,1113
12407,1097
12408,906
12409,671
12410,527
12411,395
12412,323
12413,290
12414,241
12415,243
12416,245
12417,250
12418,273
12419,320
12420,337
12421,387
12422,430
12423,404
12424,491
12425,489
12426,657
12427,863
12428,982
12429,1103
12430,1158
12431,1170
12432,1184
12433,1178
12434,1183
12435,1189
12436,1163
12437,865
12438,664
12439,503
12440,391
12441,330
12442,295
12443,270
12444,272
12445,282
12446,304
12447,345
12448,405
12449,413
12450,541
12451,807
12452,1007
12453,1129
12454,1200
12455,1233
12456,1254
12457,1248
12458,1235
12459,1243
12460,1143
12461,853
12462,640
12463,494
12464,403
12465,330
12466,232
12467,265
12468,239
12469,247
12470,262
12471,277
12472,256
12473,336
12474,364
12475,394
12476,436
12477,487
12478,511
12479,570
12480,715
12481,883
12482,1007
12483,1088
12484,1134
12485,1143
12486,1154
12487,1175
12488,1215
12489,1166
12490,928
12491,746
12492,595
12493,464
12494,403
12495,403
12496,416
12497,292
12498,350
12499,322
12500,365
12501,361
12502,367
12503,367
12504,358
12505,394
12506,558
12507,448
12508,534
12509,566
12510,614
12511,718
12512,867
12513,1005
12514,1070
12515,1121
12516,1142
12517,1161
12518,1235
12519,1239
12520,981
12521,738
12522,562
12523,416
12524,319
12525,272
12526,246
12527,192
12528,195
12529,210
12530,235
12531,278
12532,304
12533,339
12534,394
12535,479
12536,554
12537,596
12538,871
12539,1054
12540,1167
12541,1221
12542,1230
12543,1247
12544,1212
12545,1301
12546,1271
12547,1002
12548,759
12549,559
12550,380
12551,317
12552,240
12553,271
12554,195
12555,187
12556,192
12557,210
12558,221
12559,254
12560,271
12561,335
12562,286
12563,395
12564,455
12565,502
12566,509
12567,592
12568,786
12569,941
12570,1023
12571,1085
12572,1119
12573,1134
12574,1142
12575,1164
12576,1167
12577,1075
12578,803
12579,592
12580,482
12581,431
12582,379
12583,369
12584,383
12585,336
12586,351
12587,330
12588,325
12589,357
12590,346
12591,385
12592,377
12593,416
12594,461
12595,547
12596,452
12597,592
12598,638
12599,847
12600,1023
12601,1083
12602,1116
12603,1142
12604,1152
12605,1175
12606,1150
12607,1199
12608,916
12609,655
12610,503
12611,401
12612,318
12613,295
12614,251
12615,251
12616,212
12617,258
12618,248
12619,272
12620,367
12621,400
12622,464
12623,649
12624,885
12625,995
12626,1090
12627,1139
12628,1180
12629,1165
12630,1159
12631,1187
12632,1147
12633,864
12634,671
12635,475
12636,368
12637,310
12638,259
12639,249
12640,242
12641,226
12642,259
12643,256
12644,240
12645,325
12646,335
12647,352
12648,430
12649,444
12650,528
12651,547
12652,702
12653,881
12654,979
12655,1055
12656,1152
12657,1193
