Index,Amplitude (0-4096)
0,2736
1,2474
2,2189
3,1962
4,1740
5,1641
6,1602
7,1615
8,1671
9,1689
10,1706
11,1725
12,1833
13,1911
14,1987
15,2032
16,2081
17,2129
18,2204
19,2230
20,2286
21,2315
22,2345
23,2391
24,2397
25,2388
26,2469
27,2784
28,3146
29,3269
30,3190
31,2974
32,2927
33,2743
34,2454
35,2183
36,1934
37,1722
38,1583
39,1520
40,1520
41,1597
42,1609
43,1632
44,1631
45,1674
46,1745
47,1818
48,1898
49,1974
50,2043
51,2123
52,2181
53,2248
54,2295
55,2325
56,2335
57,2375
58,2471
59,2655
60,3043
61,3213
62,3131
63,2919
64,2829
65,2763
66,2430
67,2138
68,1909
69,1767
70,1698
71,1683
72,1715
73,1766
74,1751
75,1709
76,1742
77,1763
78,1854
79,1919
80,2017
81,2104
82,2177
83,2255
84,2303
85,2342
86,2378
87,2394
88,2415
89,2427
90,2421
91,2559
92,2887
93,3230
94,3226
95,3031
96,2894
97,2880
98,2531
99,2213
100,1971
101,1798
102,1706
103,1650
104,1665
105,1681
106,1698
107,1675
108,1663
109,1716
110,1808
111,1840
112,2042
113,2137
114,2217
115,2288
116,2322
117,2388
118,2448
119,2474
120,2480
121,2528
122,2741
123,3182
124,3408
125,3258
126,3063
127,2923
128,2794
129,2491
130,2221
131,1998
132,1871
133,1797
134,1779
135,1828
136,1776
137,1781
138,1790
139,1800
140,1899
141,1998
142,2096
143,2168
144,2256
145,2302
146,2396
147,2432
148,2442
149,2499
150,2557
151,2625
152,2846
153,3330
154,3471
155,3354
156,3133
157,2941
158,2889
159,2505
160,2196
161,1978
162,1904
163,1836
164,1872
165,1830
166,1799
167,1821
168,1831
169,1847
170,1937
171,2019
172,2149
173,2224
174,2320
175,2391
176,2421
177,2471
178,2523
179,2559
180,2737
181,3157
182,3463
183,3456
184,3275
185,3067
186,2906
187,2769
188,2419
189,2135
190,1967
191,1902
192,1887
193,1868
194,1813
195,1830
196,1845
197,1864
198,1895
199,1990
200,2098
201,2190
202,2283
203,2369
204,2435
205,2496
206,2535
207,2589
208,2655
209,2896
210,3386
211,3693
212,3520
213,3215
214,3062
215,2894
216,2710
217,2386
218,2182
219,2041
220,1956
221,1955
222,1857
223,1829
224,1807
225,1837
226,1873
227,1934
228,2059
229,2151
230,2247
231,2357
232,2432
233,2486
234,2544
235,2588
236,2618
237,2629
238,2704
239,2957
240,3487
241,3675
242,3471
243,3168
244,2945
245,2880
246,2592
247,2348
248,2189
249,2093
250,1998
251,1958
252,1882
253,1821
254,1840
255,1875
256,1931
257,1994
258,2102
259,2224
260,2311
261,2403
262,2480
263,2541
264,2540
265,2618
266,2659
267,2667
268,2702
269,2811
270,3129
271,3557
272,3632
273,3393
274,3044
275,2846
276,2771
277,2474
278,2247
279,2107
280,2021
281,1991
282,1903
283,1840
284,1787
285,1824
286,1874
287,1930
288,2031
289,2151
290,2265
291,2364
292,2464
293,2524
294,2559
295,2624
296,2672
297,2704
298,2721
299,2832
300,3117
301,3515
302,3506
303,3245
304,2976
305,2827
306,2666
307,2448
308,2271
309,2181
310,2116
311,2033
312,1957
313,1936
314,1891
315,1924
316,1974
317,2065
318,2160
319,2263
320,2358
321,2462
322,2528
323,2592
324,2640
325,2655
326,2697
327,2718
328,2863
329,3126
330,3504
331,3566
332,3343
333,3035
334,2906
335,2789
336,2533
337,2306
338,2160
339,2064
340,2030
341,1951
342,1882
343,1840
344,1858
345,1899
346,1968
347,2060
348,2147
349,2241
350,2374
351,2448
352,2535
353,2613
354,2639
355,2723
356,2690
357,2733
358,2957
359,3418
360,3664
361,3532
362,3241
363,2986
364,2909
365,2688
366,2396
367,2207
368,2101
369,2031
370,1981
371,1936
372,1909
373,1846
374,1634
375,1872
376,1946
377,2042
378,2158
379,2224
380,2379
381,2477
382,2544
383,2559
384,2622
385,2644
386,2665
387,2703
388,2817
389,3186
390,3599
391,3614
392,3397
393,3109
394,2987
395,2842
396,2542
397,2244
398,2101
399,1983
400,1951
401,1921
402,1744
403,1821
404,1803
405,1775
406,1826
407,1888
408,2035
409,2160
410,2273
411,2383
412,2434
413,2517
414,2559
415,2625
416,2647
417,2674
418,2703
419,2726
420,2917
421,3363
422,3600
423,3477
424,3178
425,2987
426,2896
427,2664
428,2366
429,2160
430,2020
431,1936
432,1893
433,1867
434,1843
435,1829
436,1781
437,1801
438,1872
439,1984
440,2110
441,2217
442,2337
443,2435
444,2493
445,2544
446,2599
447,2631
448,2651
449,2657
450,2650
451,2641
452,2704
453,2992
454,3474
455,3523
456,3302
457,3005
458,2950
459,2740
460,2420
461,2199
462,2032
463,1927
464,1882
465,1846
466,1827
467,1804
468,1802
469,1739
470,1777
471,1875
472,2006
473,2121
474,2239
475,2348
476,2419
477,2490
478,2533
479,2590
480,2635
481,2647
482,2658
483,2640
484,2640
485,2633
486,2794
487,3152
488,3363
489,3244
490,2974
491,2900
492,2745
493,2492
494,2273
495,2117
496,2032
497,1963
498,1922
499,1906
500,1903
501,1885
502,1831
503,1835
504,1901
505,2000
506,2123
507,2223
508,2321
509,2402
510,2457
511,2514
512,2557
513,2559
514,2599
515,2610
516,2611
517,2681
518,2934
519,3290
520,3351
521,3165
522,2903
523,2890
524,2666
525,2387
526,2190
527,2066
528,1975
529,1939
530,1923
531,1915
532,1901
533,1885
534,1844
535,1888
536,1987
537,2078
538,2180
539,2285
540,2361
541,2438
542,2484
543,2526
544,2559
545,2591
546,2624
547,2763
548,3087
549,3429
550,3405
551,3181
552,2943
553,2910
554,2656
555,2367
556,2165
557,2032
558,1943
559,1919
560,1895
561,1913
562,1879
563,1868
564,1874
565,1817
566,1943
567,2038
568,2178
569,2273
570,2350
571,2416
572,2482
573,2512
574,2544
575,2559
576,2607
577,2618
578,2813
579,3269
580,3538
581,3414
582,3141
583,2994
584,2896
585,2607
586,2291
587,2087
588,1954
589,1926
590,1904
591,1882
592,1886
593,1845
594,1847
595,1808
596,1837
597,1945
598,2075
599,2176
600,2263
601,2339
602,2393
603,2448
604,2496
605,2533
606,2611
607,2824
608,3310
609,3575
610,3558
611,3383
612,3131
613,3088
614,2955
615,2673
616,2352
617,2120
618,1963
619,1863
620,1826
621,1841
622,1876
623,1856
624,1808
625,1808
626,1840
627,1940
628,2032
629,2131
630,2196
631,2237
632,2279
633,2342
634,2386
635,2443
636,2466
637,2507
638,2790
639,3312
640,3733
641,3915
642,3857
643,3567
644,3362
645,3269
646,2933
647,2589
648,2299
649,2075
650,1891
651,1823
652,1815
653,1822
654,1833
655,1819
656,1801
657,1776
658,1733
659,1737
660,1709
661,1730
662,1820
663,1904
664,1998
665,2102
666,2172
667,2205
668,2249
669,2279
670,2435
671,2787
672,3205
673,3625
674,3825
675,3737
676,3391
677,3222
678,3150
679,2825
680,2512
681,2237
682,2022
683,1917
684,1901
685,1872
686,1931
687,1917
688,1899
689,1873
690,1853
691,1819
692,1801
693,1767
694,1776
695,1904
696,1945
697,2032
698,2142
699,2230
700,2263
701,2349
702,2522
703,2801
704,3115
705,3423
706,3474
707,3327
708,3088
709,3010
710,2919
711,2646
712,2296
713,2062
714,1887
715,1833
716,1813
717,1804
718,1797
719,1786
720,1756
721,1726
722,1701
723,1680
724,1669
725,1676
726,1679
727,1695
728,1759
729,1882
730,2031
731,2224
732,2511
733,2831
734,3257
735,3714
736,3906
737,3714
738,3455
739,3370
740,3216
741,2962
742,2559
743,2208
744,1974
745,1808
746,1726
747,1621
748,1619
749,1557
750,1493
751,1476
752,1415
753,1427
754,1377
755,1515
756,1424
757,1425
758,1445
759,1455
760,1622
761,1709
762,1893
763,2133
764,2544
765,3005
766,3277
767,3479
768,3369
769,3152
770,2996
771,2851
772,2746
773,2526
774,2256
775,2013
776,1838
777,1697
778,1691
779,1712
780,1696
781,1631
782,1687
783,1637
784,1735
785,1741
786,1747
787,1782
788,1872
789,1954
790,2035
791,2085
792,2110
793,2098
794,2129
795,2133
796,2379
797,2678
798,2902
799,2961
800,2865
801,2790
802,2714
803,2598
804,2365
805,2103
806,1856
807,1653
808,1532
809,1466
810,1506
811,1499
812,1488
813,1523
814,1518
815,1522
816,1534
817,1563
818,1579
819,1599
820,1670
821,1789
822,1872
823,1957
824,2027
825,2103
826,2283
827,2592
828,2896
829,3040
830,2943
831,2842
832,2763
833,2685
834,2484
835,2239
836,2000
837,1782
838,1623
839,1568
840,1559
841,1610
842,1610
843,1678
844,1722
845,1755
846,1776
847,1802
848,1921
849,1955
850,2019
851,2058
852,2115
853,2111
854,2141
855,2129
856,2128
857,2151
858,2141
859,2127
860,2125
861,2332
862,2686
863,2949
864,2981
865,2772
866,2733
867,2559
868,2392
869,2251
870,2095
871,1927
872,1790
873,1707
874,1680
875,1781
876,1675
877,1727
878,1819
879,1770
880,1755
881,1754
882,1779
883,1798
884,1799
885,1813
886,1840
887,1894
888,1899
889,1920
890,1952
891,1994
892,2033
893,2113
894,2229
895,2643
896,2957
897,2950
898,2800
899,2759
900,2559
901,2375
902,2249
903,2046
904,1898
905,1770
906,1623
907,1615
908,1614
909,1650
910,1714
911,1771
912,1773
913,1808
914,1809
915,1862
916,1866
917,1907
918,1927
919,1936
920,1984
921,1994
922,2018
923,2026
924,2143
925,2279
926,2617
927,2835
928,2792
929,2833
930,2688
931,2483
932,2266
933,2078
934,1867
935,1694
936,1595
937,1500
938,1535
939,1605
940,1682
941,1722
942,1742
943,1743
944,1775
945,1791
946,1799
947,1851
948,1891
949,1932
950,1910
951,1984
952,2000
953,1997
954,2065
955,2079
956,2059
957,2114
958,2103
959,2324
960,2639
961,2882
962,2960
963,2896
964,2778
965,2559
966,2383
967,2167
968,1981
969,1823
970,1648
971,1629
972,1458
973,1456
974,1487
975,1586
976,1600
977,1666
978,1682
979,1694
980,1687
981,1681
982,1734
983,1763
984,1805
985,1841
986,1885
987,1924
988,1906
989,1999
990,2032
991,2054
992,2099
993,2192
994,2368
995,2670
996,2752
997,2821
998,2699
999,2503
1000,2304
1001,2137
1002,1934
1003,1792
1004,1667
1005,1619
1006,1557
1007,1535
1008,1567
1009,1600
1010,1690
1011,1776
1012,1778
1013,1838
1014,1810
1015,1840
1016,1867
1017,1889
1018,1899
1019,1904
1020,1927
1021,1943
1022,1999
1023,1991
1024,2000
1025,2000
1026,2023
1027,2039
1028,2068
1029,2186
1030,2384
1031,2617
1032,2666
1033,2727
1034,2416
1035,2407
1036,2240
1037,2096
1038,1941
1039,1789
1040,1643
1041,1625
1042,1558
1043,1535
1044,1617
1045,1677
1046,1717
1047,1735
1048,1771
1049,1778
1050,1779
1051,1808
1052,1835
1053,1844
1054,1883
1055,1862
1056,1920
1057,1919
1058,1968
1059,1990
1060,2015
1061,2022
1062,2038
1063,2054
1064,2075
1065,1941
1066,2247
1067,2466
1068,2590
1069,2749
1070,2709
1071,2547
1072,2335
1073,2167
1074,1924
1075,1795
1076,1680
1077,1599
1078,1585
1079,1505
1080,1557
1081,1664
1082,1675
1083,1732
1084,1777
1085,1785
1086,1873
1087,1933
1088,1841
1089,1872
1090,1882
1091,1925
1092,1942
1093,1956
1094,1959
1095,2043
1096,2023
1097,2043
1098,2014
1099,2078
1100,2066
1101,2067
1102,2098
1103,2255
1104,2526
1105,2666
1106,2708
1107,2624
1108,2430
1109,2239
1110,2063
1111,1693
1112,1739
1113,1666
1114,1591
1115,1577
1116,1587
1117,1647
1118,1674
1119,1678
1120,1744
1121,1774
1122,1745
1123,1812
1124,1894
1125,1867
1126,1907
1127,1886
1128,1907
1129,1936
1130,1955
1131,1962
1132,1958
1133,2004
1134,2010
1135,2058
1136,2030
1137,2131
1138,2288
1139,2498
1140,2623
1141,2625
1142,2512
1143,2288
1144,2042
1145,1937
1146,1792
1147,1711
1148,1680
1149,1642
1150,1664
1151,1666
1152,1738
1153,1757
1154,1786
1155,1805
1156,1821
1157,1821
1158,1859
1159,1889
1160,1904
1161,1942
1162,1942
1163,1975
1164,1984
1165,2007
1166,2058
1167,1981
1168,2032
1169,2055
1170,2067
1171,2161
1172,2377
1173,2554
1174,2695
1175,2599
1176,2397
1177,2192
1178,1887
1179,1857
1180,1747
1181,1632
1182,1616
1183,1610
1184,1618
1185,1659
1186,1722
1187,1712
1188,1781
1189,1795
1190,1776
1191,1809
1192,1835
1193,1873
1194,1915
1195,1927
1196,1951
1197,1986
1198,1998
1199,2032
1200,2008
1201,2059
1202,2082
1203,2191
1204,2374
1205,2540
1206,2653
1207,2603
1208,2427
1209,2229
1210,2029
1211,1884
1212,1783
1213,1708
1214,1680
1215,1651
1216,1677
1217,1712
1218,1755
1219,1797
1220,1811
1221,1849
1222,1871
1223,1895
1224,1892
1225,1897
1226,1879
1227,1917
1228,2027
1229,1947
1230,1965
1231,1947
1232,1975
1233,2007
1234,2026
1235,2071
1236,2224
1237,2437
1238,2593
1239,2675
1240,2608
1241,2389
1242,2182
1243,1977
1244,1807
1245,1782
1246,1686
1247,1659
1248,1631
1249,1664
1250,1705
1251,1755
1252,1904
1253,1810
1254,1826
1255,1840
1256,1845
1257,1831
1258,1869
1259,1921
1260,1954
1261,1971
1262,2007
1263,2032
1264,2078
1265,2095
1266,2097
1267,2198
1268,2386
1269,2527
1270,2559
1271,2512
1272,2358
1273,2177
1274,2021
1275,1904
1276,1811
1277,1757
1278,1741
1279,1750
1280,1786
1281,1765
1282,1841
1283,1858
1284,1891
1285,1919
1286,1931
1287,1951
1288,1957
1289,1963
1290,2003
1291,1993
1292,2010
1293,2019
1294,2011
1295,2029
1296,2076
1297,2219
1298,2366
1299,2518
1300,2598
1301,2449
1302,2277
1303,2108
1304,1977
1305,1888
1306,1811
1307,1764
1308,1749
1309,1740
1310,1757
1311,1801
1312,1856
1313,1878
1314,1900
1315,1926
1316,1939
1317,1953
1318,1968
1319,1995
1320,2009
1321,2035
1322,2077
1323,2087
1324,2096
1325,2101
1326,2160
1327,2326
1328,2438
1329,2559
1330,2622
1331,2480
1332,2320
1333,2149
1334,2016
1335,1906
1336,1833
1337,1776
1338,1778
1339,1782
1340,1808
1341,1840
1342,1859
1343,1893
1344,1911
1345,1950
1346,1968
1347,1981
1348,1993
1349,2019
1350,2029
1351,2035
1352,2062
1353,2077
1354,2096
1355,2124
1356,2139
1357,2144
1358,2167
1359,2305
1360,2426
1361,2559
1362,2673
1363,2639
1364,2475
1365,2263
1366,2107
1367,1983
1368,1888
1369,1805
1370,1749
1371,1728
1372,1742
1373,1769
1374,1812
1375,1842
1376,1872
1377,1901
1378,1926
1379,1953
1380,1968
1381,1983
1382,2025
1383,2057
1384,2085
1385,2101
1386,2122
1387,2125
1388,2149
1389,2151
1390,2167
1391,2181
1392,2261
1393,2384
1394,2509
1395,2639
1396,2773
1397,2666
1398,2445
1399,2262
1400,2121
1401,1983
1402,1887
1403,1793
1404,1745
1405,1733
1406,1749
1407,1792
1408,1825
1409,1810
1410,1898
1411,1934
1412,1947
1413,1983
1414,2007
1415,2038
1416,2076
1417,2099
1418,2133
1419,2161
1420,2173
1421,2194
1422,2213
1423,2225
1424,2233
1425,2226
1426,2231
1427,2254
1428,2311
1429,2394
1430,2530
1431,2635
1432,2738
1433,2683
1434,2449
1435,2245
1436,2093
1437,1951
1438,1853
1439,1781
1440,1744
1441,1757
1442,1785
1443,1830
1444,1882
1445,1932
1446,1955
1447,1989
1448,2031
1449,2060
1450,2085
1451,2125
1452,2158
1453,2154
1454,2167
1455,2185
1456,2199
1457,2224
1458,2231
1459,2234
1460,2237
1461,2247
1462,2330
1463,2371
1464,2499
1465,2613
1466,2688
1467,2704
1468,2480
1469,2300
1470,2158
1471,2026
1472,1936
1473,1889
1474,1871
1475,1885
1476,1922
1477,1971
1478,2017
1479,2036
1480,2070
1481,2096
1482,2115
1483,2128
1484,2149
1485,2160
1486,2180
1487,2215
1488,2241
1489,2258
1490,2277
1491,2277
1492,2291
1493,2306
1494,2305
1495,2320
1496,2368
1497,2406
1498,2545
1499,2645
1500,2742
1501,2672
1502,2457
1503,2285
1504,2128
1505,2001
1506,1934
1507,1894
1508,1885
1509,1895
1510,1935
1511,1974
1512,2018
1513,2064
1514,2096
1515,2128
1516,2160
1517,2165
1518,2163
1519,2192
1520,2229
1521,2247
1522,2242
1523,2295
1524,2320
1525,2322
1526,2327
1527,2331
1528,2333
1529,2342
1530,2357
1531,2357
1532,2457
1533,2612
1534,2685
1535,2769
1536,2698
1537,2506
1538,2450
1539,2307
1540,2189
1541,2082
1542,2077
1543,2046
1544,2021
1545,2026
1546,1995
1547,1977
1548,1955
1549,1978
1550,2085
1551,2165
1552,2261
1553,2302
1554,2357
1555,2377
1556,2389
1557,2416
1558,2438
1559,2457
1560,2463
1561,2543
1562,2498
1563,2448
1564,2475
1565,2429
1566,2435
1567,2544
1568,2725
1569,2750
1570,2656
1571,2647
1572,2642
1573,2480
1574,2294
1575,2131
1576,1982
1577,1894
1578,1858
1579,1846
1580,1874
1581,1892
1582,1874
1583,1852
1584,1847
1585,1933
1586,2070
1587,2160
1588,2205
1589,2211
1590,2285
1591,2322
1592,2398
1593,2445
1594,2457
1595,2466
1596,2480
1597,2501
1598,2480
1599,2487
1600,2454
1601,2445
1602,2495
1603,2676
1604,2778
1605,2725
1606,2640
1607,2643
1608,2459
1609,2274
1610,2128
1611,2012
1612,1941
1613,1895
1614,1903
1615,1926
1616,1918
1617,1963
1618,1984
1619,1961
1620,2003
1621,2025
1622,2075
1623,2096
1624,2137
1625,2207
1626,2218
1627,2279
1628,2262
1629,2303
1630,2357
1631,2323
1632,2327
1633,2373
1634,2527
1635,2743
1636,2933
1637,2919
1638,2768
1639,2672
1640,2670
1641,2589
1642,2539
1643,2218
1644,2113
1645,2032
1646,2004
1647,1984
1648,2026
1649,2032
1650,2058
1651,2076
1652,2102
1653,2115
1654,2111
1655,2175
1656,2173
1657,2157
1658,2181
1659,2192
1660,2209
1661,2240
1662,2255
1663,2262
1664,2281
1665,2303
1666,2522
1667,2736
1668,2838
1669,2854
1670,2857
1671,2754
1672,2511
1673,2259
1674,2079
1675,1943
1676,1861
1677,1857
1678,1894
1679,1941
1680,1986
1681,1959
1682,2007
1683,2003
1684,2032
1685,2094
1686,2128
1687,2123
1688,2139
1689,2175
1690,2205
1691,2208
1692,2239
1693,2285
1694,2283
1695,2313
1696,2341
1697,2343
1698,2461
1699,2754
1700,2914
1701,2947
1702,2913
1703,2901
1704,2695
1705,2413
1706,2178
1707,2039
1708,1930
1709,1861
1710,1871
1711,1945
1712,1882
1713,1934
1714,1955
1715,1990
1716,2083
1717,2078
1718,2095
1719,2133
1720,2193
1721,2183
1722,2206
1723,2233
1724,2247
1725,2176
1726,2309
1727,2313
1728,2334
1729,2423
1730,2709
1731,2952
1732,3029
1733,3011
1734,2962
1735,2929
1736,2651
1737,2359
1738,2217
1739,2027
1740,1952
1741,1923
1742,1963
1743,1954
1744,1936
1745,1968
1746,2031
1747,2041
1748,2085
1749,2080
1750,2091
1751,2129
1752,2146
1753,2186
1754,2214
1755,2240
1756,2258
1757,2321
1758,2310
1759,2351
1760,2547
1761,2855
1762,2954
1763,3051
1764,2992
1765,2909
1766,2843
1767,2557
1768,2304
1769,2123
1770,2028
1771,1987
1772,1999
1773,1942
1774,1983
1775,2055
1776,2090
1777,2134
1778,2163
1779,2196
1780,2209
1781,2243
1782,2318
1783,2259
1784,2272
1785,2325
1786,2326
1787,2322
1788,2363
1789,2447
1790,2729
1791,2992
1792,3114
1793,3108
1794,3037
1795,2848
1796,2753
1797,2528
1798,2352
1799,2210
1800,2150
1801,2096
1802,2015
1803,1995
1804,1968
1805,2039
1806,2082
1807,2096
1808,2106
1809,2133
1810,2173
1811,2162
1812,2214
1813,2217
1814,2273
1815,2250
1816,2343
1817,2350
1818,2399
1819,2433
1820,2509
1821,2587
1822,2879
1823,3215
1824,3361
1825,3265
1826,3283
1827,3101
1828,2890
1829,2699
1830,2559
1831,2422
1832,2306
1833,2201
1834,2135
1835,2039
1836,2092
1837,2173
1838,2207
1839,2256
1840,2315
1841,2320
1842,2337
1843,2316
1844,2359
1845,2275
1846,2325
1847,2318
1848,2306
1849,2322
1850,2416
1851,2368
1852,2402
1853,2443
1854,2595
1855,2949
1856,3286
1857,3525
1858,3447
1859,3383
1860,3239
1861,2992
1862,2738
1863,2628
1864,2373
1865,2218
1866,2089
1867,2021
1868,2080
1869,2129
1870,2128
1871,2162
1872,2187
1873,2235
1874,2170
1875,2239
1876,2251
1877,2288
1878,2256
1879,2292
1880,2410
1881,2444
1882,2463
1883,2502
1884,2493
1885,2512
1886,2534
1887,2523
1888,2529
1889,2519
1890,2517
1891,2592
1892,2915
1893,3312
1894,3629
1895,3545
1896,3491
1897,3267
1898,3021
1899,2745
1900,2610
1901,2414
1902,2246
1903,2118
1904,2080
1905,2086
1906,2119
1907,2192
1908,2243
1909,2278
1910,2311
1911,2336
1912,2359
1913,2352
1914,2355
1915,2394
1916,2422
1917,2448
1918,2470
1919,2497
1920,2510
1921,2586
1922,2597
1923,2663
1924,2666
1925,2693
1926,2688
1927,2895
1928,3290
1929,3570
1930,3605
1931,3477
1932,3337
1933,3051
1934,2809
1935,2547
1936,2410
1937,2304
1938,2207
1939,2205
1940,2245
1941,2284
1942,2367
1943,2389
1944,2471
1945,2448
1946,2478
1947,2523
1948,2546
1949,2544
1950,2595
1951,2611
1952,2650
1953,2665
1954,2681
1955,2672
1956,2703
1957,2717
1958,2754
1959,2991
1960,3419
1961,3681
1962,3773
1963,3635
1964,3394
1965,3070
1966,2774
1967,2609
1968,2419
1969,2273
1970,2203
1971,2145
1972,2132
1973,2199
1974,2147
1975,2282
1976,2367
1977,2416
1978,2470
1979,2464
1980,2589
1981,2591
1982,2656
1983,2704
1984,2752
1985,2778
1986,2817
1987,2817
1988,2832
1989,2815
1990,2813
1991,2908
1992,3093
1993,3614
1994,3834
1995,3975
1996,3894
1997,3708
1998,3360
1999,3099
2000,2900
2001,2713
2002,2538
2003,2386
2004,2357
2005,2304
2006,2256
2007,2261
2008,2285
2009,2315
2010,2379
2011,2331
2012,2331
2013,2364
2014,2381
2015,2352
2016,2446
2017,2481
2018,2450
2019,2627
2020,2647
2021,2703
2022,2749
2023,2779
2024,2699
2025,2909
2026,3410
2027,3656
2028,3979
2029,3960
2030,3629
2031,3446
2032,3164
2033,2928
2034,2764
2035,2599
2036,2451
2037,2327
2038,2311
2039,2307
2040,2368
2041,2466
2042,2554
2043,2559
2044,2628
2045,2651
2046,2656
2047,2608
2048,2591
2049,2534
2050,2544
2051,2559
2052,2559
2053,2605
2054,2667
2055,2624
2056,2645
2057,2690
2058,2757
2059,2960
2060,3483
2061,3933
2062,4078
2063,4054
2064,3871
2065,3607
2066,3218
2067,2981
2068,2742
2069,2551
2070,2390
2071,2199
2072,2140
2073,2119
2074,2265
2075,2253
2076,2352
2077,2362
2078,2480
2079,2502
2080,2510
2081,2480
2082,2495
2083,2517
2084,2557
2085,2559
2086,2675
2087,2667
2088,2689
2089,2698
2090,2754
2091,2759
2092,2864
2093,3091
2094,3642
2095,3975
2096,3932
2097,3797
2098,3642
2099,3343
2100,2992
2101,2753
2102,2559
2103,2437
2104,2345
2105,2288
2106,2308
2107,2334
2108,2417
2109,2449
2110,2487
2111,2487
2112,2513
2113,2541
2114,2526
2115,2557
2116,2607
2117,2642
2118,2650
2119,2699
2120,2706
2121,2727
2122,2780
2123,2826
2124,2832
2125,2854
2126,2863
2127,2881
2128,3071
2129,3534
2130,3926
2131,3950
2132,3690
2133,3417
2134,3131
2135,2859
2136,2661
2137,2526
2138,2413
2139,2363
2140,2351
2141,2363
2142,2422
2143,2488
2144,2579
2145,2608
2146,2640
2147,2633
2148,2605
2149,2591
2150,2590
2151,2602
2152,2620
2153,2640
2154,2655
2155,2686
2156,2717
2157,2726
2158,2741
2159,2752
2160,2753
2161,2795
2162,2944
2163,3347
2164,3701
2165,3793
2166,3642
2167,3376
2168,3104
2169,2857
2170,2674
2171,2516
2172,2401
2173,2349
2174,2311
2175,2311
2176,2353
2177,2421
2178,2462
2179,2497
2180,2531
2181,2559
2182,2593
2183,2622
2184,2671
2185,2695
2186,2706
2187,2702
2188,2709
2189,2729
2190,2736
2191,2759
2192,2793
2193,2887
2194,3163
2195,3512
2196,3632
2197,3556
2198,3391
2199,3153
2200,2870
2201,2653
2202,2501
2203,2407
2204,2369
2205,2350
2206,2386
2207,2416
2208,2464
2209,2497
2210,2507
2211,2496
2212,2496
2213,2514
2214,2532
2215,2553
2216,2583
2217,2614
2218,2624
2219,2640
2220,2672
2221,2685
2222,2709
2223,2736
2224,2756
2225,2815
2226,3030
2227,3473
2228,3754
2229,3722
2230,3518
2231,3270
2232,2969
2233,2725
2234,2551
2235,2416
2236,2313
2237,2256
2238,2238
2239,2277
2240,2349
2241,2443
2242,2507
2243,2546
2244,2559
2245,2551
2246,2534
2247,2517
2248,2507
2249,2501
2250,2497
2251,2512
2252,2550
2253,2559
2254,2604
2255,2646
2256,2822
2257,3173
2258,3552
2259,3662
2260,3564
2261,3335
2262,3056
2263,2803
2264,2592
2265,2450
2266,2330
2267,2267
2268,2243
2269,2239
2270,2282
2271,2373
2272,2429
2273,2480
2274,2493
2275,2490
2276,2480
2277,2491
2278,2496
2279,2523
2280,2534
2281,2549
2282,2559
2283,2559
2284,2591
2285,2639
2286,2811
2287,3248
2288,3542
2289,3625
2290,3501
2291,3261
2292,3006
2293,2782
2294,2559
2295,2453
2296,2288
2297,2159
2298,2160
2299,2193
2300,2268
2301,2320
2302,2377
2303,2391
2304,2401
2305,2387
2306,2417
2307,2413
2308,2455
2309,2511
2310,2529
2311,2542
2312,2551
2313,2586
2314,2598
2315,2662
2316,2938
2317,3417
2318,3735
2319,3799
2320,3638
2321,3363
2322,3093
2323,2864
2324,2643
2325,2521
2326,2389
2327,2278
2328,2186
2329,2190
2330,2220
2331,2261
2332,2304
2333,2289
2334,2279
2335,2298
2336,2265
2337,2254
2338,2247
2339,2245
2340,2271
2341,2298
2342,2370
2343,2432
2344,2494
2345,2530
2346,2547
2347,2587
2348,2707
2349,3175
2350,3696
2351,3991
2352,4021
2353,3804
2354,3467
2355,3138
2356,2874
2357,2693
2358,2559
2359,2418
2360,2306
2361,2158
2362,2057
2363,1971
2364,2022
2365,2091
2366,2112
2367,2160
2368,2181
2369,2221
2370,2266
2371,2288
2372,2337
2373,2369
2374,2407
2375,2447
2376,2426
2377,2432
2378,2432
2379,2443
2380,2467
2381,2559
2382,2933
2383,3407
2384,3719
2385,3789
2386,3623
2387,3346
2388,3071
2389,2848
2390,2671
2391,2559
2392,2416
2393,2286
2394,2149
2395,2039
2396,1987
2397,2065
2398,2105
2399,2148
2400,2165
2401,2206
2402,2243
2403,2254
2404,2257
2405,2246
2406,2260
2407,2301
2408,2318
2409,2340
2410,2384
2411,2402
2412,2447
2413,2491
2414,2525
2415,2665
2416,3043
2417,3452
2418,3665
2419,3649
2420,3431
2421,3205
2422,2967
2423,2733
2424,2658
2425,2503
2426,2381
2427,2250
2428,2126
2429,2025
2430,2079
2431,2125
2432,2160
2433,2182
2434,2171
2435,2133
2436,2134
2437,2146
2438,2195
2439,2353
2440,2279
2441,2313
2442,2321
2443,2354
2444,2375
2445,2409
2446,2526
2447,2822
2448,3227
2449,3474
2450,3509
2451,3397
2452,3150
2453,2925
2454,2700
2455,2605
2456,2505
2457,2368
2458,2247
2459,2150
2460,2010
2461,2000
2462,2078
2463,2138
2464,2163
2465,2191
2466,2194
2467,2209
2468,2234
2469,2255
2470,2261
2471,2247
2472,2255
2473,2275
2474,2309
2475,2333
2476,2394
2477,2409
2478,2461
2479,2475
2480,2486
2481,2507
2482,2608
2483,2992
2484,3517
2485,3790
2486,3792
2487,3583
2488,3251
2489,2958
2490,2849
2491,2698
2492,2534
2493,2418
2494,2317
2495,2173
2496,2063
2497,1968
2498,1905
2499,1872
2500,1921
2501,1984
2502,2027
2503,2110
2504,2103
2505,2097
2506,2118
2507,2096
2508,2112
2509,2150
2510,2193
2511,2235
2512,2292
2513,2315
2514,2387
2515,2403
2516,2421
2517,2413
2518,2468
2519,2554
2520,2877
2521,3334
2522,3633
2523,3679
2524,3514
2525,3206
2526,2913
2527,2829
2528,2681
2529,2521
2530,2379
2531,2198
2532,2066
2533,1961
2534,1907
2535,1899
2536,1865
2537,1937
2538,1972
2539,1994
2540,2015
2541,1995
2542,2011
2543,2014
2544,2023
2545,2071
2546,2053
2547,2135
2548,2169
2549,2217
2550,2239
2551,2263
2552,2283
2553,2315
2554,2339
2555,2543
2556,3003
2557,3281
2558,3421
2559,3310
2560,3059
2561,2942
2562,2761
2563,2599
2564,2457
2565,2294
2566,2148
2567,2028
2568,1952
2569,1919
2570,1936
2571,1874
2572,1938
2573,2023
2574,2122
2575,2123
2576,2081
2577,2111
2578,2138
2579,2076
2580,2157
2581,2063
2582,2106
2583,2129
2584,2160
2585,2161
2586,2215
2587,2241
2588,2227
2589,2254
2590,2226
2591,2514
2592,2778
2593,3139
2594,3207
2595,3131
2596,2931
2597,2850
2598,2685
2599,2509
2600,2331
2601,2157
2602,2000
2603,1881
2604,1822
2605,1797
2606,1809
2607,1875
2608,1874
2609,1959
2610,1981
2611,1979
2612,1999
2613,2002
2614,2043
2615,2071
2616,2087
2617,2122
2618,2151
2619,2151
2620,2133
2621,2170
2622,2182
2623,2215
2624,2203
2625,2256
2626,2281
2627,2658
2628,2990
2629,3067
2630,2978
2631,2881
2632,2777
2633,2624
2634,2461
2635,2263
2636,2099
2637,1966
2638,1882
2639,1839
2640,1783
2641,1794
2642,1839
2643,1877
2644,1916
2645,1937
2646,1963
2647,1965
2648,1983
2649,1985
2650,2032
2651,2032
2652,2063
2653,2098
2654,2096
2655,2131
2656,2140
2657,2133
2658,2149
2659,2261
2660,2587
2661,2831
2662,2879
2663,2847
2664,2809
2665,2680
2666,2496
2667,2313
2668,2159
2669,2003
2670,1873
2671,1834
2672,1763
2673,1717
2674,1745
2675,1813
2676,1805
2677,1903
2678,2035
2679,1958
2680,1943
2681,1968
2682,1983
2683,2016
2684,2038
2685,2078
2686,2087
2687,2090
2688,2132
2689,2163
2690,2191
2691,2211
2692,2224
2693,2218
2694,2294
2695,2395
2696,2704
2697,2853
2698,2794
2699,2861
2700,2701
2701,2487
2702,2303
2703,2140
2704,1984
2705,1826
2706,1761
2707,1702
2708,1663
2709,1686
2710,1734
2711,1808
2712,1881
2713,1927
2714,1949
2715,1930
2716,1955
2717,2015
2718,2025
2719,2032
2720,2039
2721,2018
2722,2031
2723,2052
2724,2066
2725,2106
2726,2130
2727,2141
2728,2192
2729,2352
2730,2541
2731,2642
2732,2737
2733,2832
2734,2734
2735,2532
2736,2343
2737,2133
2738,1942
2739,1822
2740,1712
2741,1651
2742,1638
2743,1630
2744,1728
2745,1808
2746,1861
2747,1881
2748,1904
2749,1920
2750,1960
2751,1968
2752,1995
2753,2022
2754,2003
2755,2034
2756,2064
2757,2091
2758,2112
2759,2159
2760,2160
2761,2295
2762,2406
2763,2523
2764,2730
2765,2716
2766,2681
2767,2472
2768,2285
2769,2123
2770,1950
2771,1837
2772,1739
2773,1680
2774,1583
2775,1680
2776,1744
2777,1819
2778,1856
2779,1863
2780,1888
2781,1923
2782,1968
2783,2000
2784,2015
2785,1982
2786,2033
2787,1987
2788,2078
2789,2133
2790,2113
2791,2182
2792,2171
2793,2160
2794,2163
2795,2217
2796,2352
2797,2501
2798,2640
2799,2825
2800,2839
2801,2711
2802,2484
2803,2299
2804,2093
2805,1898
2806,1702
2807,1575
2808,1480
2809,1535
2810,1567
2811,1535
2812,1681
2813,1744
2814,1813
2815,1871
2816,1898
2817,1914
2818,1923
2819,1988
2820,2019
2821,2039
2822,2044
2823,2110
2824,2096
2825,2123
2826,2143
2827,2178
2828,2115
2829,2185
2830,2181
2831,2249
2832,2418
2833,2544
2834,2715
2835,2832
2836,2767
2837,2587
2838,2395
2839,2169
2840,1958
2841,1822
2842,1696
2843,1617
2844,1597
2845,1593
2846,1651
2847,1745
2848,1793
2849,1861
2850,1904
2851,1897
2852,1889
2853,1905
2854,1946
2855,1929
2856,1951
2857,2015
2858,2045
2859,2096
2860,2104
2861,2128
2862,2163
2863,2180
2864,2223
2865,2557
2866,2559
2867,2614
2868,2751
2869,2815
2870,2665
2871,2496
2872,2275
2873,2087
2874,1918
2875,1840
2876,1769
2877,1739
2878,1717
2879,1742
2880,1824
2881,1883
2882,1934
2883,1969
2884,1953
2885,1947
2886,1917
2887,1902
2888,1901
2889,1891
2890,1917
2891,1941
2892,1997
2893,1999
2894,2028
2895,2061
2896,2110
2897,2202
2898,2261
2899,2416
2900,2559
2901,2688
2902,2785
2903,2633
2904,2463
2905,2267
2906,2101
2907,1949
2908,1790
2909,1703
2910,1661
2911,1651
2912,1703
2913,1797
2914,1871
2915,1937
2916,2000
2917,2069
2918,2064
2919,2042
2920,2062
2921,2045
2922,2047
2923,2042
2924,2067
2925,2081
2926,2125
2927,2134
2928,2181
2929,2205
2930,2213
2931,2223
2932,2252
2933,2317
2934,2361
2935,2539
2936,2693
2937,2809
2938,2851
2939,2774
2940,2559
2941,2333
2942,2131
2943,1957
2944,1791
2945,1675
2946,1603
2947,1603
2948,1627
2949,1701
2950,1808
2951,1902
2952,1952
2953,1979
2954,2019
2955,2047
2956,2074
2957,2083
2958,2107
2959,2151
2960,2175
2961,2206
2962,2205
2963,2225
2964,2251
2965,2253
2966,2272
2967,2285
2968,2337
2969,2397
2970,2559
2971,2695
2972,2778
2973,2817
2974,2705
2975,2509
2976,2286
2977,2106
2978,1935
2979,1765
2980,1698
2981,1651
2982,1682
2983,1754
2984,1826
2985,1907
2986,1953
2987,1967
2988,2030
2989,2042
2990,2080
2991,2090
2992,2123
2993,2128
2994,2145
2995,2163
2996,2167
2997,2193
2998,2223
2999,2192
3000,2226
3001,2283
3002,2459
3003,2635
3004,2741
3005,2799
3006,2889
3007,2738
3008,2505
3009,2274
3010,2074
3011,1877
3012,1762
3013,1697
3014,1694
3015,1731
3016,1829
3017,1886
3018,1937
3019,2042
3020,2038
3021,2102
3022,2089
3023,2119
3024,2158
3025,2174
3026,2150
3027,2157
3028,2160
3029,2154
3030,2141
3031,2170
3032,2185
3033,2191
3034,2237
3035,2210
3036,2285
3037,2496
3038,2667
3039,2751
3040,2785
3041,2829
3042,2790
3043,2554
3044,2342
3045,2150
3046,1975
3047,1835
3048,1744
3049,1737
3050,1776
3051,1840
3052,1919
3053,1907
3054,2003
3055,1995
3056,2059
3057,2036
3058,2079
3059,2043
3060,2058
3061,2102
3062,2064
3063,2089
3064,2145
3065,2128
3066,2135
3067,2198
3068,2199
3069,2221
3070,2390
3071,2624
3072,2736
3073,2759
3074,2796
3075,2800
3076,2667
3077,2461
3078,2266
3079,2062
3080,1918
3081,1810
3082,1776
3083,1806
3084,1872
3085,1904
3086,1907
3087,1927
3088,1997
3089,1997
3090,2045
3091,2023
3092,2065
3093,2071
3094,2127
3095,2134
3096,2169
3097,2181
3098,2199
3099,2235
3100,2250
3101,2448
3102,2654
3103,2751
3104,2780
3105,2786
3106,2788
3107,2663
3108,2448
3109,2266
3110,2078
3111,1918
3112,1844
3113,1839
3114,1893
3115,1897
3116,1927
3117,2010
3118,1999
3119,2046
3120,2093
3121,2137
3122,2083
3123,2065
3124,2073
3125,2057
3126,2064
3127,2119
3128,2071
3129,2103
3130,2149
3131,2136
3132,2160
3133,2224
3134,2511
3135,2705
3136,2800
3137,2806
3138,2789
3139,2775
3140,2699
3141,2491
3142,2298
3143,2110
3144,1970
3145,1852
3146,1831
3147,1866
3148,1922
3149,1918
3150,1901
3151,1955
3152,1965
3153,2017
3154,2015
3155,2070
3156,2068
3157,2058
3158,2064
3159,2067
3160,2128
3161,2173
3162,2139
3163,2153
3164,2185
3165,2203
3166,2249
3167,2347
3168,2625
3169,2777
3170,2849
3171,2832
3172,2803
3173,2773
3174,2649
3175,2448
3176,2288
3177,2096
3178,1967
3179,1897
3180,1921
3181,1971
3182,1938
3183,1946
3184,1907
3185,1942
3186,1943
3187,1983
3188,1974
3189,2026
3190,2000
3191,2032
3192,2000
3193,2017
3194,2067
3195,2092
3196,2195
3197,2115
3198,2146
3199,2169
3200,2294
3201,2593
3202,2830
3203,2889
3204,2851
3205,2800
3206,2797
3207,2720
3208,2559
3209,2433
3210,2288
3211,2160
3212,2096
3213,2110
3214,2069
3215,2029
3216,2042
3217,2062
3218,2061
3219,2064
3220,2031
3221,2023
3222,2036
3223,1985
3224,1963
3225,1983
3226,2015
3227,1977
3228,2023
3229,2054
3230,2074
3231,2117
3232,2134
3233,2203
3234,2199
3235,2255
3236,2547
3237,2813
3238,2945
3239,2995
3240,2831
3241,2847
3242,2787
3243,2679
3244,2544
3245,2367
3246,2194
3247,2097
3248,2098
3249,2045
3250,1988
3251,1991
3252,1995
3253,2027
3254,2023
3255,2032
3256,2045
3257,2037
3258,2047
3259,2032
3260,2029
3261,2011
3262,2004
3263,2031
3264,2030
3265,2037
3266,2098
3267,2116
3268,2155
3269,2176
3270,2256
3271,2298
3272,2559
3273,2864
3274,3061
3275,3082
3276,3054
3277,2958
3278,2865
3279,2758
3280,2625
3281,2513
3282,2371
3283,2209
3284,2117
3285,2123
3286,1981
3287,2000
3288,2000
3289,2000
3290,2026
3291,2016
3292,2006
3293,2001
3294,1974
3295,1986
3296,2016
3297,2026
3298,2054
3299,2085
3300,2129
3301,2143
3302,2194
3303,2192
3304,2267
3305,2307
3306,2367
3307,2639
3308,2932
3309,3100
3310,3207
3311,3042
3312,2947
3313,2818
3314,2704
3315,2531
3316,2382
3317,2258
3318,2208
3319,2096
3320,2043
3321,2029
3322,2066
3323,2109
3324,2173
3325,2207
3326,2255
3327,2227
3328,2246
3329,2258
3330,2249
3331,2241
3332,2283
3333,2256
3334,2291
3335,2235
3336,2256
3337,2239
3338,2251
3339,2287
3340,2305
3341,2336
3342,2378
3343,2621
3344,2957
3345,3248
3346,3346
3347,3248
3348,3099
3349,2971
3350,2810
3351,2600
3352,2457
3353,2327
3354,2202
3355,2141
3356,2103
3357,2135
3358,2160
3359,2217
3360,2259
3361,2277
3362,2319
3363,2299
3364,2291
3365,2288
3366,2276
3367,2306
3368,2274
3369,2275
3370,2282
3371,2286
3372,2310
3373,2336
3374,2358
3375,2471
3376,2768
3377,3129
3378,3250
3379,3326
3380,3270
3381,3129
3382,3002
3383,2829
3384,2640
3385,2531
3386,2377
3387,2233
3388,2182
3389,2175
3390,2177
3391,2254
3392,2271
3393,2321
3394,2307
3395,2333
3396,2355
3397,2343
3398,2327
3399,2288
3400,2323
3401,2343
3402,2316
3403,2316
3404,2320
3405,2347
3406,2346
3407,2375
3408,2465
3409,2813
3410,3249
3411,3527
3412,3562
3413,3474
3414,3233
3415,3104
3416,2880
3417,2730
3418,2544
3419,2402
3420,2288
3421,2223
3422,2207
3423,2244
3424,2251
3425,2276
3426,2316
3427,2366
3428,2399
3429,2416
3430,2448
3431,2441
3432,2465
3433,2448
3434,2436
3435,2406
3436,2395
3437,2400
3438,2448
3439,2477
3440,2485
3441,2559
3442,2876
3443,3359
3444,3502
3445,3615
3446,3472
3447,3341
3448,3159
3449,2972
3450,2783
3451,2622
3452,2478
3453,2386
3454,2320
3455,2323
3456,2359
3457,2384
3458,2382
3459,2414
3460,2447
3461,2395
3462,2396
3463,2411
3464,2401
3465,2349
3466,2341
3467,2288
3468,2188
3469,2209
3470,2226
3471,2288
3472,2437
3473,2705
3474,2943
3475,3098
3476,3171
3477,3122
3478,2991
3479,2875
3480,2768
3481,2626
3482,2473
3483,2425
3484,2351
3485,2254
3486,2195
3487,2131
3488,2035
3489,2010
3490,1995
3491,1922
3492,1886
3493,1837
3494,1779
3495,1776
3496,1739
3497,1821
3498,1919
3499,2125
3500,2222
3501,2327
3502,2358
3503,2384
3504,2506
3505,2555
3506,2608
3507,2800
3508,3085
3509,3395
3510,3809
3511,4052
3512,4095
3513,3875
3514,3665
3515,3261
3516,2964
3517,2838
3518,2704
3519,2583
3520,2316
3521,2171
3522,2055
3523,1937
3524,1839
3525,1776
3526,1657
3527,1627
3528,1535
3529,1487
3530,1483
3531,1482
3532,1424
3533,1581
3534,1703
3535,1787
3536,1941
3537,2032
3538,2109
3539,2194
3540,2254
3541,2366
3542,2599
3543,2803
3544,3093
3545,3335
3546,3383
3547,3184
3548,2967
3549,2768
3550,2595
3551,2455
3552,2370
3553,2309
3554,2202
3555,2073
3556,1986
3557,1881
3558,1783
3559,1662
3560,1680
3561,1628
3562,1599
3563,1591
3564,1706
3565,1804
3566,1934
3567,2004
3568,2047
3569,2113
3570,2166
3571,2233
3572,2318
3573,2542
3574,2656
3575,2843
3576,2944
3577,2896
3578,2768
3579,2605
3580,2426
3581,2395
3582,2315
3583,2258
3584,2179
3585,2047
3586,1962
3587,1895
3588,1815
3589,1771
3590,1728
3591,1697
3592,1667
3593,1627
3594,1600
3595,1558
3596,1686
3597,1845
3598,1943
3599,2055
3600,2135
3601,2206
3602,2246
3603,2284
3604,2328
3605,2451
3606,2706
3607,2931
3608,3107
3609,3188
3610,3113
3611,2945
3612,2763
3613,2593
3614,2498
3615,2432
3616,2387
3617,2224
3618,2034
3619,1875
3620,1779
3621,1728
3622,1665
3623,1633
3624,1600
3625,1583
3626,1500
3627,1533
3628,1478
3629,1484
3630,1614
3631,1750
3632,1867
3633,1982
3634,2064
3635,2143
3636,2226
3637,2277
3638,2320
3639,2405
3640,2606
3641,2826
3642,2979
3643,3098
3644,3027
3645,2867
3646,2716
3647,2512
3648,2394
3649,2347
3650,2268
3651,2158
3652,2042
3653,1937
3654,1834
3655,1751
3656,1687
3657,1637
3658,1591
3659,1647
3660,1735
3661,1813
3662,1902
3663,1984
3664,2047
3665,2143
3666,2193
3667,2223
3668,2255
3669,2301
3670,2379
3671,2554
3672,2800
3673,2949
3674,2992
3675,2885
3676,2768
3677,2608
3678,2491
3679,2339
3680,2274
3681,2209
3682,2121
3683,2014
3684,1938
3685,1841
3686,1783
3687,1725
3688,1712
3689,1753
3690,1793
3691,1791
3692,1872
3693,1963
3694,2013
3695,2075
3696,2112
3697,2171
3698,2213
3699,2241
3700,2285
3701,2305
3702,2305
3703,2345
3704,2320
3705,2427
3706,2703
3707,2945
3708,3070
3709,3121
3710,2993
3711,2830
3712,2645
3713,2461
3714,2427
3715,2325
3716,2237
3717,2129
3718,2022
3719,1917
3720,1799
3721,1728
3722,1690
3723,1600
3724,1591
3725,1616
3726,1666
3727,1718
3728,1775
3729,1835
3730,1935
3731,2017
3732,2094
3733,2151
3734,2115
3735,2192
3736,2191
3737,2207
3738,2215
3739,2193
3740,2245
3741,2369
3742,2598
3743,2793
3744,2801
3745,2732
3746,2625
3747,2434
3748,2347
3749,2294
3750,2256
3751,2163
3752,2032
3753,1963
3754,1894
3755,1823
3756,1747
3757,1697
3758,1679
3759,1637
3760,1600
3761,1685
3762,1817
3763,1913
3764,2001
3765,2099
3766,2161
3767,2195
3768,2207
3769,2246
3770,2253
3771,2255
3772,2251
3773,2270
3774,2352
3775,2640
3776,2853
3777,2882
3778,2802
3779,2661
3780,2480
3781,2422
3782,2405
3783,2298
3784,2240
3785,2071
3786,1940
3787,1840
3788,1819
3789,1829
3790,1785
3791,1718
3792,1678
3793,1649
3794,1725
3795,1838
3796,1937
3797,2032
3798,2096
3799,2160
3800,2175
3801,2217
3802,2263
3803,2259
3804,2291
3805,2275
3806,2257
3807,2238
3808,2316
3809,2544
3810,2784
3811,2910
3812,2864
3813,2782
3814,2637
3815,2534
3816,2416
3817,2373
3818,2320
3819,2156
3820,1981
3821,1815
3822,1753
3823,1711
3824,1714
3825,1723
3826,1677
3827,1645
3828,1636
3829,1595
3830,1573
3831,1658
3832,1791
3833,1910
3834,1974
3835,2064
3836,2134
3837,2175
3838,2214
3839,2239
3840,2247
3841,2226
3842,2275
3843,2359
3844,2634
3845,2865
3846,2883
3847,2811
3848,2710
3849,2619
3850,2512
3851,2467
3852,2350
3853,2223
3854,1995
3855,1852
3856,1765
3857,1717
3858,1678
3859,1746
3860,1735
3861,1735
3862,1698
3863,1623
3864,1735
3865,1783
3866,1901
3867,1967
3868,2003
3869,2058
3870,2073
3871,2098
3872,2133
3873,2177
3874,2242
3875,2503
3876,2711
3877,2732
3878,2666
3879,2653
3880,2559
3881,2477
3882,2413
3883,2379
3884,2205
3885,2095
3886,1885
3887,1749
3888,1722
3889,1739
3890,1744
3891,1738
3892,1690
3893,1655
3894,1730
3895,1717
3896,1779
3897,1775
3898,1840
3899,1877
3900,1907
3901,1936
3902,1998
3903,2007
3904,2047
3905,2058
3906,2064
3907,2138
3908,2363
3909,2666
3910,2839
3911,2886
3912,2805
3913,2687
3914,2678
3915,2527
3916,2397
3917,2176
3918,2141
3919,1955
3920,1811
3921,1775
3922,1787
3923,1767
3924,1781
3925,1792
3926,1811
3927,1838
3928,1827
3929,1840
3930,1862
3931,1939
3932,1915
3933,1925
3934,1971
3935,1977
3936,2001
3937,2001
3938,2061
3939,2064
3940,2046
3941,2241
3942,2519
3943,2659
3944,2736
3945,2700
3946,2615
3947,2546
3948,2461
3949,2320
3950,2171
3951,2032
3952,1929
3953,1871
3954,1823
3955,1813
3956,1808
3957,1750
3958,1834
3959,1839
3960,1845
3961,1827
3962,1796
3963,1814
3964,1808
3965,1835
3966,1834
3967,1879
3968,1919
3969,1922
3970,1963
3971,1991
3972,2255
3973,2415
3974,2530
3975,2543
3976,2508
3977,2559
3978,2477
3979,2357
3980,2195
3981,2043
3982,1947
3983,1831
3984,1783
3985,1749
3986,1734
3987,1718
3988,1741
3989,1744
3990,1725
3991,1744
3992,1743
3993,1779
3994,1793
3995,1814
3996,1819
3997,1840
3998,1864
3999,1872
4000,1902
4001,1919
4002,1943
4003,2027
4004,2323
4005,2527
4006,2697
4007,2619
4008,2623
4009,2609
4010,2555
4011,2413
4012,2236
4013,2074
4014,1897
4015,1805
4016,1723
4017,1668
4018,1621
4019,1605
4020,1597
4021,1616
4022,1617
4023,1702
4024,1602
4025,1626
4026,1682
4027,1671
4028,1646
4029,1719
4030,1747
4031,1680
4032,1819
4033,1851
4034,1907
4035,1813
4036,1928
4037,2106
4038,2415
4039,2656
4040,2815
4041,2744
4042,2734
4043,2768
4044,2611
4045,2448
4046,2163
4047,1945
4048,1809
4049,1616
4050,1443
4051,1425
4052,1416
4053,1380
4054,1414
4055,1467
4056,1418
4057,1422
4058,1454
4059,1483
4060,1559
4061,1520
4062,1525
4063,1584
4064,1621
4065,1613
4066,1680
4067,1684
4068,1690
4069,1723
4070,1779
4071,1905
4072,2214
4073,2407
4074,2464
4075,2482
4076,2512
4077,2496
4078,2311
4079,2131
4080,1933
4081,1730
4082,1612
4083,1483
4084,1437
4085,1427
4086,1462
4087,1450
4088,1456
4089,1485
4090,1474
4091,1488
4092,1501
4093,1511
4094,1535
4095,1576
4096,1606
4097,1616
4098,1622
4099,1759
4100,1639
4101,1693
4102,1934
4103,2240
4104,2453
4105,2486
4106,2482
4107,2538
4108,2453
4109,2234
4110,2043
4111,1785
4112,1603
4113,1493
4114,1392
4115,1360
4116,1364
4117,1381
4118,1395
4119,1407
4120,1402
4121,1394
4122,1398
4123,1415
4124,1403
4125,1425
4126,1434
4127,1458
4128,1477
4129,1520
4130,1531
4131,1571
4132,1611
4133,1590
4134,1670
4135,1904
4136,2270
4137,2540
4138,2603
4139,2544
4140,2559
4141,2559
4142,2352
4143,2079
4144,1813
4145,1586
4146,1440
4147,1360
4148,1423
4149,1370
4150,1363
4151,1347
4152,1333
4153,1351
4154,1367
4155,1271
4156,1299
4157,1292
4158,1237
4159,1235
4160,1316
4161,1455
4162,1581
4163,1673
4164,1735
4165,1792
4166,1814
4167,1841
4168,1936
4169,2137
4170,2373
4171,2645
4172,2851
4173,2931
4174,2831
4175,2683
4176,2500
4177,2417
4178,2352
4179,2224
4180,1902
4181,1633
4182,1498
4183,1407
4184,1356
4185,1318
4186,1288
4187,1269
4188,1279
4189,1286
4190,1264
4191,1270
4192,1238
4193,1207
4194,1186
4195,1291
4196,1421
4197,1516
4198,1586
4199,1675
4200,1745
4201,1767
4202,1803
4203,1871
4204,2056
4205,2283
4206,2531
4207,2705
4208,2749
4209,2658
4210,2491
4211,2369
4212,2288
4213,2235
4214,2099
4215,1835
4216,1616
4217,1490
4218,1401
4219,1357
4220,1335
4221,1318
4222,1327
4223,1319
4224,1285
4225,1270
4226,1239
4227,1233
4228,1191
4229,1170
4230,1289
4231,1409
4232,1510
4233,1599
4234,1712
4235,1921
4236,2171
4237,2369
4238,2548
4239,2610
4240,2543
4241,2432
4242,2308
4243,2207
4244,2144
4245,2123
4246,2029
4247,1837
4248,1695
4249,1605
4250,1535
4251,1522
4252,1493
4253,1485
4254,1458
4255,1419
4256,1418
4257,1361
4258,1314
4259,1305
4260,1367
4261,1479
4262,1582
4263,1648
4264,1728
4265,1800
4266,1840
4267,1934
4268,2163
4269,2361
4270,2633
4271,2807
4272,2853
4273,2749
4274,2542
4275,2399
4276,2362
4277,2267
4278,1978
4279,1707
4280,1520
4281,1415
4282,1359
4283,1328
4284,1345
4285,1337
4286,1333
4287,1300
4288,1290
4289,1269
4290,1232
4291,1257
4292,1360
4293,1468
4294,1575
4295,1670
4296,1725
4297,1785
4298,1814
4299,1875
4300,1938
4301,2133
4302,2352
4303,2519
4304,2621
4305,2592
4306,2482
4307,2306
4308,2227
4309,2190
4310,2122
4311,1924
4312,1732
4313,1590
4314,1489
4315,1451
4316,1455
4317,1477
4318,1438
4319,1419
4320,1394
4321,1354
4322,1337
4323,1363
4324,1473
4325,1571
4326,1664
4327,1744
4328,1749
4329,1783
4330,1779
4331,1872
4332,2073
4333,2266
4334,2399
4335,2407
4336,2358
4337,2278
4338,2246
4339,2213
4340,2114
4341,2028
4342,2013
4343,1857
4344,1743
4345,1690
4346,1666
4347,1600
4348,1613
4349,1535
4350,1520
4351,1484
4352,1483
4353,1498
4354,1623
4355,1691
4356,1770
4357,1853
4358,1904
4359,1945
4360,1970
4361,2062
4362,1995
4363,2012
4364,2138
4365,2418
4366,2590
4367,2705
4368,2704
4369,2559
4370,2432
4371,2287
4372,2183
4373,2131
4374,2066
4375,1915
4376,1710
4377,1616
4378,1584
4379,1606
4380,1562
4381,1530
4382,1497
4383,1481
4384,1503
4385,1503
4386,1575
4387,1635
4388,1713
4389,1776
4390,1815
4391,1863
4392,1928
4393,1931
4394,1952
4395,1959
4396,1974
4397,2058
4398,2253
4399,2437
4400,2559
4401,2602
4402,2533
4403,2416
4404,2368
4405,2255
4406,2213
4407,2099
4408,1958
4409,1802
4410,1734
4411,1708
4412,1617
4413,1602
4414,1637
4415,1529
4416,1520
4417,1535
4418,1594
4419,1629
4420,1653
4421,1683
4422,1757
4423,1819
4424,1936
4425,2031
4426,2014
4427,2057
4428,2125
4429,2235
4430,2425
4431,2593
4432,2702
4433,2725
4434,2671
4435,2607
4436,2384
4437,2265
4438,2166
4439,2082
4440,2009
4441,1888
4442,1829
4443,1718
4444,1666
4445,1599
4446,1589
4447,1612
4448,1621
4449,1631
4450,1681
4451,1700
4452,1741
4453,1783
4454,1839
4455,1885
4456,1907
4457,1936
4458,1958
4459,2003
4460,2160
4461,2353
4462,2559
4463,2696
4464,2735
4465,2689
4466,2588
4467,2474
4468,2381
4469,2272
4470,2160
4471,2100
4472,1941
4473,1872
4474,1790
4475,1712
4476,1697
4477,1685
4478,1703
4479,1737
4480,1745
4481,1795
4482,1823
4483,1827
4484,1887
4485,1917
4486,1968
4487,1975
4488,2020
4489,2046
4490,2079
4491,2096
4492,2147
4493,2288
4494,2458
4495,2689
4496,2922
4497,3033
4498,2970
4499,2877
4500,2763
4501,2554
4502,2402
4503,2238
4504,2099
4505,2000
4506,1836
4507,1697
4508,1616
4509,1534
4510,1520
4511,1561
4512,1555
4513,1607
4514,1616
4515,1637
4516,1651
4517,1710
4518,1751
4519,1808
4520,1840
4521,1861
4522,1908
4523,1968
4524,2001
4525,2000
4526,2065
4527,2229
4528,2465
4529,2650
4530,2941
4531,3071
4532,3082
4533,2901
4534,2705
4535,2523
4536,2343
4537,2203
4538,2083
4539,1973
4540,1873
4541,1680
4542,1614
4543,1491
4544,1441
4545,1378
4546,1371
4547,1375
4548,1395
4549,1440
4550,1501
4551,1598
4552,1659
4553,1697
4554,1822
4555,1810
4556,1893
4557,1904
4558,2013
4559,2201
4560,2427
4561,2710
4562,2955
4563,2992
4564,2926
4565,2734
4566,2547
4567,2318
4568,2289
4569,2123
4570,1930
4571,1751
4572,1643
4573,1585
4574,1458
4575,1415
4576,1395
4577,1335
4578,1359
4579,1319
4580,1365
4581,1450
4582,1513
4583,1596
4584,1670
4585,1785
4586,1801
4587,1879
4588,1906
4589,1955
4590,1993
4591,2014
4592,2254
4593,2543
4594,2885
4595,3254
4596,3455
4597,3261
4598,2959
4599,2720
4600,2482
4601,2401
4602,2275
4603,1973
4604,1758
4605,1558
4606,1520
4607,1422
4608,1369
4609,1272
4610,1137
4611,1177
4612,1129
4613,1106
4614,1168
4615,1263
4616,1339
4617,1421
4618,1490
4619,1585
4620,1657
4621,1729
4622,1798
4623,1867
4624,1943
4625,2089
4626,2298
4627,2544
4628,2798
4629,2955
4630,2933
4631,2768
4632,2583
4633,2355
4634,2221
4635,2126
4636,1997
4637,1834
4638,1696
4639,1561
4640,1461
4641,1344
4642,1328
4643,1263
4644,1249
4645,1303
4646,1365
4647,1438
4648,1489
4649,1535
4650,1613
4651,1675
4652,1723
4653,1776
4654,1817
4655,1861
4656,1902
4657,1937
4658,2055
4659,2259
4660,2493
4661,2711
4662,2846
4663,2838
4664,2693
4665,2531
4666,2317
4667,2154
4668,2113
4669,1983
4670,1857
4671,1733
4672,1607
4673,1505
4674,1443
4675,1398
4676,1364
4677,1344
4678,1269
4679,1296
4680,1242
4681,1271
4682,1405
4683,1493
4684,1583
4685,1680
4686,1744
4687,1827
4688,1936
4689,2131
4690,2370
4691,2649
4692,2847
4693,2902
4694,2846
4695,2688
4696,2511
4697,2281
4698,2179
4699,2067
4700,1967
4701,1840
4702,1712
4703,1622
4704,1491
4705,1449
4706,1413
4707,1339
4708,1343
4709,1391
4710,1432
4711,1466
4712,1521
4713,1593
4714,1637
4715,1677
4716,1707
4717,1728
4718,1759
4719,1797
4720,1915
4721,2161
4722,2480
4723,2795
4724,2997
4725,2992
4726,2896
4727,2701
4728,2484
4729,2309
4730,2224
4731,2096
4732,1954
4733,1788
4734,1674
4735,1556
4736,1445
4737,1374
4738,1339
4739,1267
4740,1234
4741,1168
4742,1161
4743,1137
4744,1147
4745,1223
4746,1283
4747,1387
4748,1488
4749,1565
4750,1617
4751,1709
4752,1869
4753,2148
4754,2445
4755,2726
4756,2844
4757,2845
4758,2711
4759,2543
4760,2349
4761,2221
4762,2159
4763,2045
4764,1831
4765,1659
4766,1528
4767,1417
4768,1350
4769,1306
4770,1258
4771,1227
4772,1210
4773,1196
4774,1145
4775,1125
4776,1154
4777,1114
4778,1261
4779,1396
4780,1535
4781,1626
4782,1712
4783,1763
4784,1827
4785,2023
4786,2278
4787,2559
4788,2811
4789,2871
4790,2795
4791,2631
4792,2429
4793,2289
4794,2231
4795,2128
4796,1931
4797,1731
4798,1597
4799,1495
4800,1417
4801,1362
4802,1325
4803,1277
4804,1232
4805,1213
4806,1201
4807,1136
4808,1177
4809,1137
4810,1265
4811,1369
4812,1487
4813,1635
4814,1702
4815,1795
4816,1953
4817,2172
4818,2448
4819,2684
4820,2802
4821,2761
4822,2615
4823,2446
4824,2237
4825,2222
4826,2128
4827,1975
4828,1750
4829,1568
4830,1488
4831,1392
4832,1315
4833,1273
4834,1265
4835,1207
4836,1164
4837,1119
4838,1104
4839,1090
4840,1091
4841,1246
4842,1393
4843,1535
4844,1668
4845,1776
4846,1897
4847,1938
4848,1967
4849,2037
4850,2198
4851,2418
4852,2691
4853,2930
4854,3061
4855,2992
4856,2794
4857,2559
4858,2396
4859,2326
4860,2199
4861,1910
4862,1664
4863,1435
4864,1323
4865,1287
4866,1242
4867,1238
4868,1233
4869,1233
4870,1231
4871,1191
4872,1168
4873,1136
4874,1114
4875,1111
4876,1152
4877,1285
4878,1359
4879,1503
4880,1601
4881,1680
4882,1744
4883,1847
4884,2039
4885,2245
4886,2476
4887,2621
4888,2640
4889,2544
4890,2378
4891,2250
4892,2208
4893,2160
4894,2019
4895,1785
4896,1584
4897,1471
4898,1392
4899,1367
4900,1325
4901,1296
4902,1291
4903,1285
4904,1277
4905,1267
4906,1264
4907,1206
4908,1231
4909,1245
4910,1383
4911,1518
4912,1583
4913,1654
4914,1822
4915,1968
4916,2271
4917,2509
4918,2654
4919,2640
4920,2535
4921,2341
4922,2307
4923,2239
4924,2155
4925,1919
4926,1675
4927,1487
4928,1387
4929,1297
4930,1276
4931,1249
4932,1237
4933,1248
4934,1246
4935,1222
4936,1213
4937,1225
4938,1232
4939,1221
4940,1323
4941,1439
4942,1519
4943,1585
4944,1659
4945,1743
4946,1897
4947,2134
4948,2383
4949,2645
4950,2817
4951,2875
4952,2736
4953,2544
4954,2434
4955,2365
4956,2232
4957,1991
4958,1715
4959,1535
4960,1373
4961,1318
4962,1297
4963,1264
4964,1232
4965,1210
4966,1189
4967,1207
4968,1198
4969,1201
4970,1200
4971,1204
4972,1312
4973,1312
4974,1314
4975,1374
4976,1466
4977,1627
4978,1874
4979,2123
4980,2315
4981,2383
4982,2349
4983,2227
4984,2098
4985,2128
4986,2061
4987,1926
4988,1773
4989,1685
4990,1603
4991,1535
4992,1484
4993,1486
4994,1591
4995,1447
4996,1445
4997,1459
4998,1454
4999,1493
5000,1479
5001,1503
5002,1535
5003,1535
5004,1581
5005,1603
5006,1635
5007,1809
5008,2040
5009,2278
5010,2446
5011,2462
5012,2391
5013,2318
5014,2254
5015,2128
5016,1984
5017,1851
5018,1712
5019,1626
5020,1461
5021,1485
5022,1458
5023,1418
5024,1392
5025,1363
5026,1364
5027,1346
5028,1370
5029,1362
5030,1415
5031,1387
5032,1419
5033,1454
5034,1531
5035,1579
5036,1858
5037,2161
5038,2318
5039,2448
5040,2353
5041,2321
5042,2250
5043,2142
5044,1966
5045,1793
5046,1667
5047,1534
5048,1425
5049,1358
5050,1303
5051,1291
5052,1261
5053,1252
5054,1219
5055,1246
5056,1280
5057,1284
5058,1286
5059,1258
5060,1361
5061,1398
5062,1462
5063,1492
5064,1507
5065,1749
5066,2131
5067,2462
5068,2651
5069,2659
5070,2559
5071,2535
5072,2448
5073,2240
5074,2017
5075,1785
5076,1663
5077,1350
5078,1297
5079,1225
5080,1163
5081,1104
5082,1072
5083,1013
5084,1023
5085,1023
5086,979
5087,1047
5088,1072
5089,1087
5090,1143
5091,1168
5092,1200
5093,1239
5094,1324
5095,1411
5096,1680
5097,2238
5098,2685
5099,2826
5100,2746
5101,2685
5102,2611
5103,2427
5104,2160
5105,1820
5106,1574
5107,1255
5108,1135
5109,994
5110,897
5111,878
5112,861
5113,823
5114,823
5115,770
5116,801
5117,802
5118,759
5119,842
5120,913
5121,960
5122,973
5123,999
5124,998
5125,1073
5126,1136
5127,1214
5128,1293
5129,1740
5130,2251
5131,2543
5132,2550
5133,2441
5134,2463
5135,2357
5136,2131
5137,1837
5138,1535
5139,1269
5140,1054
5141,922
5142,861
5143,768
5144,831
5145,891
5146,912
5147,913
5148,926
5149,947
5150,943
5151,947
5152,943
5153,986
5154,969
5155,957
5156,929
5157,966
5158,1003
5159,1011
5160,1129
5161,1313
5162,1698
5163,2211
5164,2545
5165,2691
5166,2587
5167,2448
5168,2384
5169,2257
5170,2131
5171,1739
5172,1379
5173,1068
5174,953
5175,865
5176,819
5177,778
5178,793
5179,755
5180,751
5181,727
5182,743
5183,766
5184,759
5185,800
5186,854
5187,831
5188,821
5189,867
5190,820
5191,851
5192,931
5193,1015
5194,1056
5195,1184
5196,1246
5197,1454
5198,1830
5199,2247
5200,2691
5201,2800
5202,2694
5203,2525
5204,2393
5205,2362
5206,2267
5207,1899
5208,1507
5209,1200
5210,994
5211,880
5212,762
5213,739
5214,713
5215,720
5216,705
5217,707
5218,693
5219,759
5220,769
5221,790
5222,830
5223,807
5224,845
5225,804
5226,786
5227,834
5228,933
5229,1071
5230,1122
5231,1165
5232,1248
5233,1241
5234,1293
5235,1490
5236,1805
5237,2314
5238,2802
5239,3050
5240,2914
5241,2766
5242,2587
5243,2475
5244,2047
5245,1606
5246,1241
5247,971
5248,801
5249,688
5250,691
5251,689
5252,727
5253,712
5254,722
5255,720
5256,688
5257,650
5258,649
5259,655
5260,682
5261,703
5262,730
5263,754
5264,751
5265,717
5266,729
5267,752
5268,835
5269,943
5270,1104
5271,1379
5272,1831
5273,2290
5274,2559
5275,2621
5276,2507
5277,2299
5278,2187
5279,2159
5280,1905
5281,1535
5282,1201
5283,976
5284,810
5285,778
5286,752
5287,784
5288,784
5289,802
5290,809
5291,822
5292,798
5293,816
5294,831
5295,833
5296,848
5297,825
5298,791
5299,848
5300,816
5301,834
5302,921
5303,997
5304,1086
5305,1153
5306,1281
5307,1516
5308,1904
5309,2291
5310,2499
5311,2555
5312,2451
5313,2259
5314,2181
5315,2142
5316,1936
5317,1575
5318,1257
5319,1023
5320,875
5321,784
5322,750
5323,767
5324,783
5325,790
5326,803
5327,798
5328,785
5329,751
5330,757
5331,774
5332,783
5333,800
5334,803
5335,785
5336,799
5337,825
5338,845
5339,921
5340,990
5341,1088
5342,1163
5343,1243
5344,1488
5345,1858
5346,2244
5347,2489
5348,2601
5349,2496
5350,2370
5351,2365
5352,2209
5353,1830
5354,1467
5355,1138
5356,897
5357,724
5358,656
5359,630
5360,652
5361,667
5362,702
5363,697
5364,718
5365,730
5366,762
5367,755
5368,790
5369,798
5370,798
5371,759
5372,806
5373,807
5374,880
5375,857
5376,896
5377,929
5378,1168
5379,1407
5380,1807
5381,2108
5382,2199
5383,2139
5384,2061
5385,2032
5386,2010
5387,1755
5388,1442
5389,1119
5390,930
5391,782
5392,686
5393,653
5394,656
5395,651
5396,669
5397,703
5398,755
5399,817
5400,814
5401,793
5402,846
5403,835
5404,854
5405,867
5406,991
5407,971
5408,1015
5409,1066
5410,1123
5411,1152
5412,1202
5413,1316
5414,1515
5415,1875
5416,2210
5417,2358
5418,2341
5419,2186
5420,2175
5421,2146
5422,2014
5423,1714
5424,1424
5425,1166
5426,1008
5427,895
5428,842
5429,833
5430,845
5431,880
5432,912
5433,932
5434,967
5435,944
5436,925
5437,942
5438,944
5439,991
5440,993
5441,1033
5442,1068
5443,1088
5444,1159
5445,1127
5446,1201
5447,1221
5448,1239
5449,1325
5450,1312
5451,1520
5452,1891
5453,2272
5454,2455
5455,2448
5456,2298
5457,2221
5458,2213
5459,2155
5460,1840
5461,1555
5462,1257
5463,1086
5464,959
5465,880
5466,857
5467,869
5468,880
5469,938
5470,921
5471,962
5472,942
5473,938
5474,919
5475,912
5476,931
5477,939
5478,979
5479,980
5480,1008
5481,1094
5482,1139
5483,1187
5484,1205
5485,1242
5486,1369
5487,1616
5488,1947
5489,2251
5490,2442
5491,2439
5492,2297
5493,2143
5494,2118
5495,2093
5496,1968
5497,1629
5498,1448
5499,1280
5500,1188
5501,1107
5502,1131
5503,1117
5504,1104
5505,1014
5506,1077
5507,1078
5508,1013
5509,1036
5510,992
5511,998
5512,942
5513,967
5514,957
5515,960
5516,983
5517,1065
5518,1307
5519,1389
5520,1755
5521,2173
5522,2559
5523,2763
5524,2793
5525,2539
5526,2418
5527,2291
5528,2218
5529,2127
5530,1776
5531,1445
5532,1249
5533,1086
5534,1008
5535,962
5536,960
5537,949
5538,927
5539,943
5540,861
5541,801
5542,855
5543,811
5544,875
5545,816
5546,816
5547,877
5548,939
5549,1072
5550,1197
5551,1317
5552,1433
5553,1456
5554,1667
5555,1968
5556,2448
5557,2786
5558,2946
5559,2894
5560,2729
5561,2490
5562,2365
5563,2256
5564,2151
5565,1807
5566,1519
5567,1308
5568,1153
5569,1040
5570,1023
5571,1040
5572,1056
5573,970
5574,937
5575,943
5576,911
5577,911
5578,891
5579,874
5580,883
5581,855
5582,824
5583,862
5584,911
5585,950
5586,1079
5587,1168
5588,1239
5589,1436
5590,1751
5591,2179
5592,2506
5593,2706
5594,2781
5595,2613
5596,2415
5597,2214
5598,2159
5599,2039
5600,1664
5601,1356
5602,1179
5603,1051
5604,990
5605,959
5606,962
5607,893
5608,853
5609,854
5610,871
5611,831
5612,838
5613,870
5614,862
5615,860
5616,829
5617,876
5618,944
5619,1023
5620,1142
5621,1244
5622,1393
5623,1647
5624,2064
5625,2438
5626,2705
5627,2732
5628,2637
5629,2405
5630,2185
5631,2096
5632,1995
5633,1634
5634,1330
5635,1123
5636,988
5637,939
5638,930
5639,923
5640,896
5641,861
5642,848
5643,848
5644,833
5645,839
5646,829
5647,784
5648,803
5649,810
5650,784
5651,845
5652,960
5653,1082
5654,1185
5655,1265
5656,1358
5657,1417
5658,1535
5659,1751
5660,2128
5661,2528
5662,2832
5663,2995
5664,2913
5665,2637
5666,2362
5667,2294
5668,2071
5669,1721
5670,1413
5671,1210
5672,1049
5673,927
5674,855
5675,906
5676,893
5677,850
5678,799
5679,784
5680,795
5681,761
5682,744
5683,766
5684,706
5685,674
5686,727
5687,686
5688,709
5689,753
5690,826
5691,967
5692,1069
5693,1214
5694,1285
5695,1447
5696,1766
5697,2210
5698,2606
5699,2802
5700,2767
5701,2559
5702,2211
5703,2144
5704,2111
5705,1713
5706,1387
5707,1143
5708,1008
5709,862
5710,832
5711,800
5712,809
5713,799
5714,786
5715,753
5716,731
5717,771
5718,721
5719,720
5720,739
5721,756
5722,720
5723,748
5724,726
5725,802
5726,898
5727,1039
5728,1105
5729,1225
5730,1264
5731,1294
5732,1411
5733,1687
5734,2096
5735,2432
5736,2587
5737,2526
5738,2366
5739,2055
5740,2037
5741,1912
5742,1523
5743,1201
5744,919
5745,771
5746,700
5747,648
5748,750
5749,688
5750,725
5751,766
5752,695
5753,693
5754,681
5755,666
5756,679
5757,664
5758,665
5759,673
5760,658
5761,675
5762,687
5763,731
5764,749
5765,865
5766,1008
5767,1281
5768,1664
5769,2107
5770,2415
5771,2559
5772,2512
5773,2320
5774,2082
5775,2042
5776,1986
5777,1616
5778,1295
5779,1018
5780,912
5781,810
5782,819
5783,827
5784,798
5785,803
5786,766
5787,787
5788,797
5789,745
5790,784
5791,741
5792,747
5793,751
5794,741
5795,723
5796,781
5797,880
5798,1044
5799,1143
5800,1231
5801,1322
5802,1520
5803,1902
5804,2298
5805,2642
5806,2797
5807,2672
5808,2410
5809,2199
5810,2173
5811,2019
5812,1680
5813,1344
5814,1091
5815,923
5816,855
5817,871
5818,761
5819,781
5820,722
5821,749
5822,740
5823,730
5824,723
5825,724
5826,680
5827,693
5828,704
5829,711
5830,688
5831,701
5832,735
5833,840
5834,967
5835,1083
5836,1200
5837,1312
5838,1531
5839,1908
5840,2288
5841,2590
5842,2709
5843,2559
5844,2366
5845,2160
5846,2186
5847,1971
5848,1593
5849,1264
5850,1046
5851,896
5852,820
5853,807
5854,845
5855,838
5856,815
5857,785
5858,803
5859,771
5860,801
5861,795
5862,741
5863,743
5864,758
5865,812
5866,897
5867,993
5868,1091
5869,1170
5870,1258
5871,1314
5872,1450
5873,1718
5874,2130
5875,2447
5876,2663
5877,2683
5878,2583
5879,2375
5880,2129
5881,2146
5882,1917
5883,1563
5884,1265
5885,1074
5886,885
5887,847
5888,841
5889,828
5890,816
5891,807
5892,779
5893,774
5894,751
5895,738
5896,744
5897,735
5898,734
5899,742
5900,709
5901,714
5902,722
5903,806
5904,943
5905,1047
5906,1143
5907,1289
5908,1530
5909,1917
5910,2315
5911,2592
5912,2689
5913,2611
5914,2397
5915,2211
5916,2187
5917,1958
5918,1597
5919,1303
5920,1076
5921,901
5922,829
5923,798
5924,803
5925,801
5926,848
5927,827
5928,791
5929,782
5930,769
5931,780
5932,764
5933,758
5934,786
5935,773
5936,749
5937,758
5938,855
5939,963
5940,1056
5941,1136
5942,1199
5943,1313
5944,1649
5945,2026
5946,2384
5947,2624
5948,2690
5949,2559
5950,2305
5951,2175
5952,2114
5953,1771
5954,1394
5955,1125
5956,921
5957,785
5958,730
5959,715
5960,709
5961,729
5962,743
5963,755
5964,752
5965,743
5966,752
5967,747
5968,761
5969,734
5970,766
5971,758
5972,738
5973,775
5974,894
5975,987
5976,1126
5977,1339
5978,1694
5979,2109
5980,2441
5981,2607
5982,2608
5983,2418
5984,2188
5985,2160
5986,2098
5987,1747
5988,1378
5989,1107
5990,951
5991,867
5992,869
5993,880
5994,915
5995,927
5996,944
5997,922
5998,911
5999,902
6000,902
6001,902
6002,895
6003,903
6004,868
6005,880
6006,865
6007,854
6008,848
6009,851
6010,946
6011,1435
6012,1953
6013,2304
6014,2386
6015,2288
6016,2096
6017,1962
6018,1957
6019,1793
6020,1456
6021,1162
6022,949
6023,822
6024,761
6025,765
6026,784
6027,831
6028,832
6029,811
6030,780
6031,793
6032,784
6033,752
6034,763
6035,772
6036,766
6037,743
6038,779
6039,726
6040,762
6041,756
6042,838
6043,1070
6044,1402
6045,1872
6046,2293
6047,2537
6048,2517
6049,2349
6050,2113
6051,2064
6052,1997
6053,1677
6054,1348
6055,1092
6056,889
6057,774
6058,737
6059,739
6060,765
6061,770
6062,746
6063,689
6064,683
6065,672
6066,694
6067,662
6068,691
6069,723
6070,688
6071,704
6072,752
6073,825
6074,947
6075,1152
6076,1488
6077,1863
6078,2211
6079,2426
6080,2418
6081,2273
6082,2032
6083,1920
6084,1918
6085,1639
6086,1323
6087,1105
6088,959
6089,894
6090,850
6091,847
6092,843
6093,789
6094,781
6095,769
6096,755
6097,730
6098,730
6099,702
6100,727
6101,689
6102,711
6103,732
6104,821
6105,935
6106,1181
6107,1573
6108,1994
6109,2339
6110,2453
6111,2384
6112,2177
6113,1957
6114,1936
6115,1776
6116,1423
6117,1088
6118,891
6119,734
6120,733
6121,722
6122,769
6123,776
6124,773
6125,752
6126,736
6127,750
6128,739
6129,750
6130,718
6131,740
6132,752
6133,752
6134,768
6135,769
6136,755
6137,775
6138,1023
6139,1409
6140,1866
6141,2267
6142,2463
6143,2393
6144,2233
6145,2112
6146,2041
6147,1856
6148,1469
6149,1144
6150,959
6151,803
6152,703
6153,672
6154,693
6155,664
6156,695
6157,656
6158,661
6159,657
6160,677
6161,656
6162,682
6163,709
6164,731
6165,729
6166,550
6167,778
6168,895
6169,1187
6170,1527
6171,1879
6172,2128
6173,2224
6174,2179
6175,1997
6176,1975
6177,1910
6178,1697
6179,1319
6180,1072
6181,937
6182,698
6183,821
6184,687
6185,658
6186,663
6187,674
6188,593
6189,667
6190,687
6191,698
6192,747
6193,761
6194,773
6195,787
6196,784
6197,753
6198,848
6199,1130
6200,1535
6201,1945
6202,2235
6203,2341
6204,2325
6205,2171
6206,2073
6207,2027
6208,1898
6209,1680
6210,1329
6211,1072
6212,957
6213,871
6214,818
6215,785
6216,779
6217,738
6218,768
6219,778
6220,789
6221,806
6222,818
6223,832
6224,839
6225,910
6226,857
6227,873
6228,918
6229,958
6230,976
6231,1300
6232,1673
6233,2006
6234,2102
6235,2075
6236,1939
6237,1922
6238,1841
6239,1623
6240,1399
6241,1098
6242,877
6243,752
6244,720
6245,631
6246,603
6247,624
6248,627
6249,586
6250,655
6251,703
6252,758
6253,750
6254,817
6255,816
6256,845
6257,905
6258,1034
6259,1171
6260,1328
6261,1637
6262,1884
6263,2092
6264,2129
6265,2019
6266,1904
6267,1862
6268,1787
6269,1643
6270,1498
6271,1331
6272,1135
6273,1076
6274,1023
6275,1008
6276,976
6277,970
6278,1038
6279,1033
6280,1059
6281,1073
6282,1075
6283,1097
6284,1136
6285,1162
6286,1207
6287,1239
6288,1254
6289,1438
6290,1686
6291,1943
6292,2099
6293,2061
6294,2030
6295,2039
6296,1984
6297,1840
6298,1671
6299,1486
6300,1312
6301,1078
6302,1072
6303,967
6304,956
6305,944
6306,976
6307,941
6308,981
6309,1008
6310,1060
6311,1068
6312,1082
6313,1131
6314,1164
6315,1152
6316,1168
6317,1351
6318,1709
6319,1938
6320,2113
6321,2156
6322,2083
6323,2127
6324,2071
6325,2000
6326,1665
6327,1632
6328,1408
6329,1148
6330,1084
6331,989
6332,960
6333,903
6334,893
6335,912
6336,906
6337,947
6338,976
6339,1021
6340,1054
6341,1077
6342,1088
6343,1121
6344,1177
6345,1217
6346,1397
6347,1740
6348,1995
6349,2096
6350,2065
6351,2095
6352,2128
6353,2079
6354,1938
6355,1749
6356,1556
6357,1296
6358,1271
6359,1048
6360,960
6361,949
6362,942
6363,928
6364,977
6365,999
6366,987
6367,1072
6368,985
6369,1078
6370,1104
6371,1113
6372,1191
6373,1200
6374,1191
6375,1280
6376,1347
6377,1727
6378,1950
6379,2139
6380,2112
6381,2129
6382,2201
6383,2132
6384,1981
6385,1811
6386,1562
6387,1357
6388,1182
6389,1051
6390,961
6391,903
6392,897
6393,859
6394,915
6395,885
6396,907
6397,928
6398,1083
6399,916
6400,994
6401,1072
6402,1107
6403,1105
6404,1075
6405,1259
6406,1330
6407,1445
6408,1591
6409,1767
6410,1850
6411,1933
6412,1917
6413,1813
6414,1614
6415,1424
6416,1209
6417,1251
6418,1114
6419,1129
6420,1092
6421,1131
6422,1155
6423,1152
6424,1162
6425,1193
6426,1193
6427,1200
6428,1168
6429,1195
6430,1181
6431,1168
6432,1212
6433,1298
6434,1397
6435,1493
6436,1622
6437,1756
6438,1937
6439,1973
6440,2029
6441,1867
6442,1665
6443,1445
6444,1267
6445,1131
6446,1023
6447,970
6448,951
6449,949
6450,1047
6451,974
6452,1011
6453,1057
6454,1085
6455,1102
6456,1132
6457,1169
6458,1181
6459,1223
6460,1265
6461,1354
6462,1413
6463,1584
6464,1870
6465,1985
6466,2074
6467,2145
6468,2159
6469,2007
6470,1791
6471,1535
6472,1328
6473,1137
6474,1031
6475,945
6476,926
6477,853
6478,957
6479,992
6480,993
6481,1011
6482,1050
6483,1086
6484,1104
6485,1109
6486,1135
6487,1168
6488,1185
6489,1215
6490,1287
6491,1373
6492,1530
6493,1680
6494,1762
6495,1841
6496,1883
6497,1932
6498,1757
6499,1599
6500,1409
6501,1281
6502,1200
6503,1137
6504,1121
6505,1087
6506,1090
6507,1073
6508,1063
6509,1040
6510,1043
6511,1083
6512,1122
6513,1151
6514,1184
6515,1177
6516,1222
6517,1233
6518,1274
6519,1300
6520,1463
6521,1783
6522,2014
6523,2081
6524,2128
6525,2208
6526,2154
6527,2066
6528,1787
6529,1527
6530,1318
6531,1178
6532,1058
6533,976
6534,939
6535,907
6536,910
6537,903
6538,944
6539,945
6540,986
6541,1063
6542,1073
6543,1104
6544,1095
6545,1131
6546,1168
6547,1231
6548,1394
6549,1663
6550,1917
6551,2046
6552,2069
6553,2099
6554,2112
6555,2096
6556,1939
6557,1702
6558,1456
6559,1269
6560,1129
6561,1009
6562,964
6563,931
6564,891
6565,885
6566,922
6567,929
6568,945
6569,947
6570,976
6571,994
6572,994
6573,1008
6574,1023
6575,1082
6576,1343
6577,1776
6578,2094
6579,2161
6580,2142
6581,2128
6582,2178
6583,2128
6584,1877
6585,1571
6586,1329
6587,1114
6588,988
6589,925
6590,899
6591,905
6592,935
6593,927
6594,931
6595,933
6596,931
6597,914
6598,915
6599,942
6600,933
6601,940
6602,980
6603,977
6604,1008
6605,1200
6606,1643
6607,2041
6608,2205
6609,2208
6610,2166
6611,2161
6612,2149
6613,2032
6614,1698
6615,1351
6616,1034
6617,791
6618,655
6619,579
6620,543
6621,506
6622,491
6623,475
6624,477
6625,534
6626,576
6627,638
6628,655
6629,687
6630,685
6631,681
6632,706
6633,733
6634,816
6635,794
6636,979
6637,1453
6638,1901
6639,2111
6640,2129
6641,2058
6642,2009
6643,2013
6644,1875
6645,1573
6646,1255
6647,967
6648,770
6649,622
6650,573
6651,557
6652,583
6653,610
6654,661
6655,688
6656,716
6657,722
6658,726
6659,711
6660,703
6661,707
6662,718
6663,743
6664,823
6665,845
6666,848
6667,929
6668,965
6669,1040
6670,1434
6671,1877
6672,2126
6673,2162
6674,2073
6675,1979
6676,1977
6677,1942
6678,1586
6679,1247
6680,938
6681,721
6682,579
6683,495
6684,451
6685,449
6686,465
6687,502
6688,547
6689,604
6690,618
6691,608
6692,634
6693,657
6694,654
6695,749
6696,763
6697,769
6698,830
6699,871
6700,1095
6701,1525
6702,1904
6703,2096
6704,2100
6705,2000
6706,1947
6707,1903
6708,1859
6709,1677
6710,1358
6711,1142
6712,938
6713,855
6714,784
6715,722
6716,734
6717,707
6718,688
6719,732
6720,710
6721,746
6722,720
6723,691
6724,704
6725,742
6726,775
6727,806
6728,869
6729,935
6730,958
6731,1023
6732,1159
6733,1617
6734,2191
6735,2607
6736,2767
6737,2587
6738,2301
6739,2293
6740,2173
6741,1973
6742,1593
6743,1194
6744,912
6745,709
6746,597
6747,538
6748,499
6749,524
6750,549
6751,589
6752,590
6753,592
6754,602
6755,607
6756,629
6757,603
6758,570
6759,656
6760,674
6761,768
6762,845
6763,971
6764,1074
6765,1202
6766,1417
6767,1807
6768,2275
6769,2626
6770,2736
6771,2641
6772,2416
6773,2227
6774,2115
6775,2018
6776,1830
6777,1488
6778,1197
6779,947
6780,855
6781,831
6782,758
6783,785
6784,794
6785,752
6786,684
6787,665
6788,715
6789,656
6790,663
6791,678
6792,689
6793,710
6794,750
6795,833
6796,881
6797,954
6798,1008
6799,1073
6800,1238
6801,1567
6802,2042
6803,2454
6804,2699
6805,2679
6806,2482
6807,2261
6808,2111
6809,1962
6810,1874
6811,1570
6812,1249
6813,1019
6814,918
6815,834
6816,861
6817,784
6818,752
6819,681
6820,674
6821,643
6822,640
6823,626
6824,607
6825,633
6826,677
6827,727
6828,769
6829,829
6830,885
6831,991
6832,1232
6833,1680
6834,2165
6835,2439
6836,2536
6837,2377
6838,2193
6839,2046
6840,1839
6841,1742
6842,1639
6843,1309
6844,1043
6845,897
6846,816
6847,795
6848,705
6849,651
6850,617
6851,583
6852,576
6853,565
6854,571
6855,582
6856,649
6857,683
6858,751
6859,834
6860,934
6861,978
6862,1070
6863,1133
6864,1225
6865,1411
6866,1728
6867,2207
6868,2535
6869,2663
6870,2559
6871,2383
6872,2159
6873,1940
6874,1808
6875,1712
6876,1419
6877,1138
6878,975
6879,859
6880,784
6881,743
6882,669
6883,598
6884,575
6885,592
6886,559
6887,585
6888,605
6889,667
6890,720
6891,773
6892,912
6893,971
6894,1023
6895,1087
6896,1121
6897,1214
6898,1264
6899,1459
6900,1635
6901,2004
6902,2367
6903,2621
6904,2675
6905,2553
6906,2347
6907,2138
6908,1943
6909,1847
6910,1702
6911,1502
6912,1312
6913,1169
6914,1072
6915,969
6916,859
6917,829
6918,784
6919,711
6920,730
6921,691
6922,719
6923,736
6924,798
6925,816
6926,926
6927,970
6928,1053
6929,1147
6930,1173
6931,1281
6932,1408
6933,1680
6934,2064
6935,2443
6936,2603
6937,2608
6938,2465
6939,2233
6940,2046
6941,1817
6942,1723
6943,1617
6944,1460
6945,1296
6946,1147
6947,1007
6948,949
6949,893
6950,806
6951,815
6952,779
6953,742
6954,767
6955,707
6956,785
6957,863
6958,916
6959,999
6960,1088
6961,1134
6962,1254
6963,1335
6964,1533
6965,1883
6966,2286
6967,2559
6968,2653
6969,2653
6970,2461
6971,2228
6972,1935
6973,1850
6974,1722
6975,1535
6976,1391
6977,1225
6978,1088
6979,993
6980,931
6981,821
6982,780
6983,738
6984,720
6985,717
6986,781
6987,775
6988,847
6989,946
6990,1021
6991,1135
6992,1232
6993,1329
6994,1357
6995,1419
6996,1500
6997,1702
6998,2067
6999,2489
7000,2785
7001,2863
7002,2765
7003,2544
7004,2287
7005,2081
7006,1962
7007,1809
7008,1535
7009,1296
7010,1130
7011,1019
7012,941
7013,866
7014,807
7015,755
7016,714
7017,688
7018,689
7019,655
7020,657
7021,675
7022,750
7023,860
7024,941
7025,1056
7026,1151
7027,1246
7028,1323
7029,1488
7030,1747
7031,2089
7032,2399
7033,2550
7034,2512
7035,2361
7036,2159
7037,1903
7038,1856
7039,1744
7040,1587
7041,1355
7042,1139
7043,1023
7044,849
7045,835
7046,837
7047,832
7048,821
7049,821
7050,803
7051,781
7052,764
7053,752
7054,754
7055,816
7056,797
7057,896
7058,1006
7059,1200
7060,1378
7061,1744
7062,2090
7063,2293
7064,2322
7065,2194
7066,2035
7067,1857
7068,1834
7069,1744
7070,1708
7071,1510
7072,1291
7073,1204
7074,1115
7075,1068
7076,1003
7077,978
7078,977
7079,958
7080,939
7081,930
7082,927
7083,930
7084,902
7085,902
7086,924
7087,905
7088,923
7089,999
7090,1374
7091,1734
7092,2100
7093,2324
7094,2379
7095,2288
7096,2128
7097,1943
7098,1882
7099,1803
7100,1791
7101,1623
7102,1387
7103,1232
7104,1136
7105,1079
7106,1037
7107,1005
7108,989
7109,962
7110,951
7111,947
7112,959
7113,912
7114,909
7115,910
7116,896
7117,896
7118,896
7119,911
7120,1058
7121,1377
7122,1727
7123,2123
7124,2416
7125,2483
7126,2394
7127,2231
7128,2025
7129,2000
7130,1893
7131,1872
7132,1599
7133,1359
7134,1202
7135,1108
7136,1071
7137,1050
7138,1011
7139,988
7140,993
7141,987
7142,965
7143,945
7144,949
7145,937
7146,959
7147,876
7148,902
7149,959
7150,1136
7151,1282
7152,1487
7153,1759
7154,2128
7155,2493
7156,2641
7157,2603
7158,2457
7159,2243
7160,2133
7161,2047
7162,2029
7163,1774
7164,1481
7165,1278
7166,1149
7167,1058
7168,999
7169,980
7170,947
7171,912
7172,900
7173,898
7174,891
7175,907
7176,923
7177,886
7178,871
7179,880
7180,878
7181,896
7182,886
7183,1249
7184,1712
7185,2221
7186,2371
7187,2381
7188,2223
7189,2081
7190,1909
7191,1875
7192,1834
7193,1786
7194,1535
7195,1297
7196,1084
7197,982
7198,940
7199,910
7200,929
7201,912
7202,896
7203,912
7204,905
7205,932
7206,905
7207,901
7208,912
7209,902
7210,835
7211,855
7212,834
7213,1125
7214,1359
7215,1682
7216,2043
7217,2347
7218,2469
7219,2429
7220,2288
7221,2095
7222,2037
7223,1943
7224,1895
7225,1665
7226,1394
7227,1216
7228,1104
7229,1009
7230,925
7231,946
7232,949
7233,901
7234,898
7235,845
7236,881
7237,887
7238,899
7239,940
7240,914
7241,930
7242,944
7243,914
7244,1235
7245,1618
7246,1997
7247,2245
7248,2345
7249,2313
7250,2208
7251,1984
7252,1920
7253,1885
7254,1834
7255,1744
7256,1606
7257,1438
7258,1303
7259,1296
7260,1233
7261,1169
7262,1155
7263,1097
7264,1072
7265,1055
7266,1038
7267,1035
7268,1099
7269,1047
7270,1021
7271,1072
7272,1287
7273,1639
7274,2018
7275,2261
7276,2335
7277,2199
7278,2098
7279,2003
7280,1965
7281,1874
7282,1706
7283,1582
7284,1360
7285,1232
7286,1195
7287,1106
7288,1088
7289,1033
7290,1018
7291,992
7292,986
7293,944
7294,938
7295,969
7296,958
7297,944
7298,1006
7299,1250
7300,1696
7301,2002
7302,2176
7303,2172
7304,2128
7305,1979
7306,1964
7307,1915
7308,1861
7309,1629
7310,1394
7311,1183
7312,1074
7313,965
7314,886
7315,799
7316,709
7317,737
7318,728
7319,716
7320,754
7321,782
7322,862
7323,870
7324,849
7325,834
7326,1124
7327,1518
7328,1814
7329,2071
7330,2058
7331,1946
7332,1919
7333,1889
7334,1818
7335,1764
7336,1598
7337,1386
7338,1259
7339,1143
7340,1064
7341,1009
7342,991
7343,970
7344,979
7345,982
7346,993
7347,1010
7348,989
7349,1069
7350,1083
7351,1044
7352,1135
7353,1152
7354,1166
7355,1195
7356,1488
7357,1936
7358,2227
7359,2336
7360,2253
7361,2209
7362,2193
7363,2096
7364,1900
7365,1667
7366,1391
7367,1168
7368,909
7369,803
7370,707
7371,665
7372,657
7373,659
7374,645
7375,654
7376,719
7377,643
7378,673
7379,727
7380,703
7381,745
7382,812
7383,827
7384,850
7385,877
7386,951
7387,1012
7388,1062
7389,1232
7390,1665
7391,2055
7392,2246
7393,2239
7394,2128
7395,2138
7396,2066
7397,2026
7398,1906
7399,1665
7400,1367
7401,1088
7402,816
7403,688
7404,583
7405,546
7406,482
7407,441
7408,397
7409,354
7410,318
7411,391
7412,477
7413,546
7414,580
7415,685
7416,699
7417,659
7418,731
7419,768
7420,927
7421,993
7422,1156
7423,1489
7424,1728
7425,1840
7426,1781
7427,1815
7428,1825
7429,1851
7430,1762
7431,1504
7432,1297
7433,1131
7434,940
7435,832
7436,771
7437,731
7438,704
7439,719
7440,710
7441,714
7442,733
7443,756
7444,783
7445,846
7446,825
7447,1031
7448,965
7449,959
7450,1023
7451,1098
7452,1179
7453,1167
7454,1152
7455,1289
7456,1670
7457,1953
7458,2046
7459,1965
7460,2071
7461,2096
7462,1984
7463,1825
7464,1535
7465,1228
7466,947
7467,752
7468,608
7469,495
7470,483
7471,449
7472,477
7473,480
7474,500
7475,466
7476,552
7477,550
7478,555
7479,663
7480,747
7481,820
7482,826
7483,889
7484,945
7485,975
7486,1023
7487,1062
7488,1102
7489,1205
7490,1314
7491,1669
7492,1825
7493,1836
7494,1914
7495,1946
7496,1938
7497,1684
7498,1430
7499,1144
7500,847
7501,651
7502,503
7503,451
7504,347
7505,318
7506,372
7507,387
7508,403
7509,384
7510,490
7511,553
7512,619
7513,659
7514,626
7515,797
7516,817
7517,811
7518,883
7519,929
7520,964
7521,1054
7522,1145
7523,1535
7524,1689
7525,1741
7526,1808
7527,1836
7528,1866
7529,1751
7530,1495
7531,1235
7532,973
7533,754
7534,608
7535,511
7536,493
7537,466
7538,491
7539,484
7540,487
7541,525
7542,577
7543,650
7544,718
7545,768
7546,785
7547,827
7548,871
7549,925
7550,952
7551,1015
7552,1011
7553,1072
7554,1117
7555,1246
7556,1584
7557,1881
7558,1942
7559,1937
7560,1985
7561,2025
7562,1982
7563,1747
7564,1459
7565,1200
7566,943
7567,763
7568,631
7569,564
7570,511
7571,499
7572,511
7573,532
7574,567
7575,624
7576,679
7577,713
7578,784
7579,810
7580,830
7581,825
7582,870
7583,918
7584,912
7585,956
7586,983
7587,1062
7588,1207
7589,1591
7590,1863
7591,1958
7592,1914
7593,1947
7594,1946
7595,1939
7596,1663
7597,1360
7598,1072
7599,826
7600,640
7601,511
7602,450
7603,437
7604,435
7605,457
7606,485
7607,525
7608,582
7609,640
7610,688
7611,738
7612,725
7613,752
7614,742
7615,787
7616,833
7617,874
7618,859
7619,949
7620,951
7621,1101
7622,1490
7623,1839
7624,1955
7625,1893
7626,1910
7627,1958
7628,1879
7629,1726
7630,1443
7631,1183
7632,947
7633,791
7634,693
7635,646
7636,624
7637,611
7638,595
7639,598
7640,610
7641,624
7642,660
7643,711
7644,752
7645,752
7646,747
7647,763
7648,834
7649,870
7650,861
7651,924
7652,1175
7653,1509
7654,1744
7655,1781
7656,1766
7657,1799
7658,1781
7659,1783
7660,1505
7661,1190
7662,913
7663,689
7664,531
7665,448
7666,431
7667,427
7668,439
7669,468
7670,496
7671,545
7672,592
7673,651
7674,663
7675,686
7676,710
7677,732
7678,725
7679,822
7680,789
7681,848
7682,1058
7683,1445
7684,1789
7685,1936
7686,1917
7687,1859
7688,1862
7689,1835
7690,1726
7691,1414
7692,1123
7693,855
7694,667
7695,564
7696,473
7697,477
7698,491
7699,534
7700,605
7701,641
7702,677
7703,709
7704,718
7705,738
7706,748
7707,777
7708,923
7709,859
7710,909
7711,902
7712,923
7713,970
7714,1059
7715,1343
7716,1773
7717,2010
7718,2003
7719,1939
7720,1952
7721,1872
7722,1856
7723,1587
7724,1264
7725,958
7726,713
7727,550
7728,452
7729,389
7730,384
7731,406
7732,428
7733,486
7734,547
7735,596
7736,631
7737,651
7738,617
7739,653
7740,688
7741,720
7742,786
7743,787
7744,762
7745,884
7746,960
7747,973
7748,1104
7749,1449
7750,1837
7751,2041
7752,2070
7753,1937
7754,1978
7755,1968
7756,1887
7757,1632
7758,1329
7759,1065
7760,864
7761,698
7762,598
7763,551
7764,523
7765,498
7766,530
7767,545
7768,571
7769,633
7770,671
7771,670
7772,686
7773,674
7774,743
7775,771
7776,810
7777,832
7778,864
7779,938
7780,1096
7781,1453
7782,1818
7783,1970
7784,1986
7785,1895
7786,1857
7787,1905
7788,1809
7789,1737
7790,1429
7791,1120
7792,861
7793,689
7794,611
7795,579
7796,544
7797,560
7798,560
7799,601
7800,630
7801,688
7802,688
7803,698
7804,668
7805,745
7806,779
7807,784
7808,848
7809,874
7810,915
7811,955
7812,1010
7813,1265
7814,1660
7815,1958
7816,2073
7817,1978
7818,1887
7819,1904
7820,1831
7821,1798
7822,1535
7823,1261
7824,1001
7825,817
7826,695
7827,636
7828,600
7829,631
7830,656
7831,725
7832,766
7833,752
7834,734
7835,736
7836,798
7837,768
7838,803
7839,834
7840,882
7841,928
7842,970
7843,1017
7844,1053
7845,1161
7846,1362
7847,1690
7848,1991
7849,2091
7850,2029
7851,1919
7852,1895
7853,1911
7854,1819
7855,1567
7856,1305
7857,1078
7858,914
7859,832
7860,782
7861,752
7862,773
7863,790
7864,835
7865,814
7866,846
7867,833
7868,847
7869,897
7870,890
7871,919
7872,943
7873,1007
7874,1067
7875,1104
7876,1153
7877,1191
7878,1233
7879,1297
7880,1463
7881,1719
7882,2029
7883,2185
7884,2157
7885,2021
7886,1982
7887,1923
7888,1845
7889,1667
7890,1392
7891,1246
7892,1079
7893,1008
7894,939
7895,912
7896,913
7897,958
7898,912
7899,880
7900,880
7901,867
7902,889
7903,892
7904,930
7905,991
7906,1040
7907,1089
7908,1135
7909,1168
7910,1243
7911,1317
7912,1422
7913,1623
7914,1933
7915,2187
7916,2303
7917,2241
7918,2119
7919,2064
7920,1978
7921,1783
7922,1806
7923,1582
7924,1339
7925,1174
7926,1059
7927,1046
7928,1019
7929,1043
7930,1005
7931,972
7932,927
7933,892
7934,880
7935,901
7936,915
7937,913
7938,946
7939,998
7940,1063
7941,1124
7942,1216
7943,1438
7944,1689
7945,1968
7946,2096
7947,2101
7948,1993
7949,1904
7950,1842
7951,1779
7952,1681
7953,1594
7954,1457
7955,1287
7956,1232
7957,1233
7958,1137
7959,1075
7960,1021
7961,1032
7962,975
7963,972
7964,944
7965,987
7966,1012
7967,1067
7968,1130
7969,1136
7970,1217
7971,1248
7972,1394
7973,1626
7974,1929
7975,2256
7976,2455
7977,2461
7978,2367
7979,2198
7980,2139
7981,1953
7982,1923
7983,1771
7984,1535
7985,1364
7986,1233
7987,1168
7988,1121
7989,1055
7990,979
7991,966
7992,927
7993,923
7994,913
7995,957
7996,1003
7997,1056
7998,1098
7999,1143
8000,1237
8001,1280
8002,1374
8003,1502
8004,1791
8005,2139
8006,2467
8007,2609
8008,2559
8009,2448
8010,2311
8011,2149
8012,2000
8013,1904
8014,1812
8015,1554
8016,1411
8017,1279
8018,1200
8019,1019
8020,1069
8021,976
8022,937
8023,903
8024,896
8025,912
8026,938
8027,976
8028,1055
8029,1110
8030,1190
8031,1233
8032,1317
8033,1373
8034,1471
8035,1712
8036,2068
8037,2418
8038,2667
8039,2688
8040,2585
8041,2432
8042,2257
8043,2112
8044,1959
8045,1831
8046,1671
8047,1471
8048,1325
8049,1246
8050,1122
8051,998
8052,944
8053,912
8054,871
8055,851
8056,815
8057,833
8058,880
8059,907
8060,955
8061,990
8062,1070
8063,1135
8064,1204
8065,1355
8066,1630
8067,2018
8068,2347
8069,2482
8070,2523
8071,2400
8072,2227
8073,2071
8074,1885
8075,1791
8076,1665
8077,1579
8078,1396
8079,1244
8080,1200
8081,1040
8082,995
8083,944
8084,879
8085,908
8086,967
8087,900
8088,950
8089,973
8090,1059
8091,1103
8092,1195
8093,1232
8094,1346
8095,1363
8096,1478
8097,1473
8098,1607
8099,1869
8100,2251
8101,2593
8102,2698
8103,2701
8104,2580
8105,2396
8106,2213
8107,2025
8108,1843
8109,1745
8110,1670
8111,1459
8112,1264
8113,1168
8114,1045
8115,992
8116,896
8117,825
8118,813
8119,783
8120,807
8121,844
8122,898
8123,933
8124,1007
8125,1058
8126,1098
8127,1227
8128,1248
8129,1315
8130,1360
8131,1390
8132,1442
8133,1511
8134,1627
8135,1907
8136,2318
8137,2559
8138,2669
8139,2610
8140,2443
8141,2309
8142,2129
8143,1923
8144,1783
8145,1710
8146,1566
8147,1435
8148,1237
8149,1098
8150,1060
8151,929
8152,832
8153,866
8154,784
8155,747
8156,752
8157,807
8158,848
8159,909
8160,987
8161,1073
8162,1143
8163,1253
8164,1344
8165,1402
8166,1490
8167,1564
8168,1616
8169,1661
8170,1641
8171,1699
8172,1812
8173,2022
8174,2427
8175,2679
8176,2779
8177,2711
8178,2583
8179,2241
8180,2151
8181,1980
8182,1718
8183,1681
8184,1566
8185,1373
8186,1231
8187,1136
8188,999
8189,930
8190,894
8191,827
8192,793
8193,775
8194,809
8195,810
8196,896
8197,946
8198,1023
8199,1122
8200,1176
8201,1273
8202,1356
8203,1355
8204,1439
8205,1491
8206,1521
8207,1616
8208,1690
8209,1915
8210,2241
8211,2547
8212,2624
8213,2688
8214,2546
8215,2378
8216,2146
8217,1909
8218,1863
8219,1738
8220,1592
8221,1417
8222,1277
8223,1179
8224,1040
8225,984
8226,917
8227,846
8228,861
8229,848
8230,847
8231,885
8232,922
8233,994
8234,1071
8235,1180
8236,1253
8237,1328
8238,1399
8239,1435
8240,1483
8241,1522
8242,1558
8243,1573
8244,1613
8245,1701
8246,1923
8247,2224
8248,2512
8249,2624
8250,2581
8251,2448
8252,2283
8253,2072
8254,1871
8255,1828
8256,1743
8257,1606
8258,1485
8259,1315
8260,1262
8261,1139
8262,1045
8263,991
8264,957
8265,881
8266,887
8267,892
8268,870
8269,939
8270,1023
8271,1105
8272,1222
8273,1264
8274,1360
8275,1391
8276,1476
8277,1529
8278,1584
8279,1629
8280,1648
8281,1648
8282,1623
8283,1649
8284,1822
8285,2029
8286,2353
8287,2603
8288,2677
8289,2629
8290,2474
8291,2225
8292,1989
8293,1898
8294,1830
8295,1712
8296,1573
8297,1398
8298,1271
8299,1169
8300,1067
8301,983
8302,959
8303,927
8304,861
8305,879
8306,848
8307,901
8308,969
8309,1047
8310,1145
8311,1201
8312,1278
8313,1334
8314,1367
8315,1409
8316,1475
8317,1505
8318,1530
8319,1531
8320,1535
8321,1598
8322,1723
8323,1951
8324,2265
8325,2467
8326,2539
8327,2470
8328,2315
8329,2103
8330,1925
8331,1866
8332,1840
8333,1669
8334,1417
8335,1230
8336,1108
8337,1045
8338,1008
8339,992
8340,978
8341,973
8342,976
8343,943
8344,960
8345,944
8346,939
8347,955
8348,953
8349,902
8350,907
8351,903
8352,1050
8353,1200
8354,1328
8355,1447
8356,1517
8357,1535
8358,1578
8359,1610
8360,1749
8361,1930
8362,2198
8363,2464
8364,2559
8365,2497
8366,2337
8367,2129
8368,2035
8369,1984
8370,1978
8371,1712
8372,1417
8373,1223
8374,1082
8375,1001
8376,962
8377,927
8378,907
8379,942
8380,917
8381,918
8382,893
8383,871
8384,848
8385,839
8386,855
8387,918
8388,1075
8389,1223
8390,1343
8391,1467
8392,1535
8393,1616
8394,1669
8395,1704
8396,1774
8397,1909
8398,2131
8399,2364
8400,2559
8401,2620
8402,2512
8403,2358
8404,2164
8405,2059
8406,1979
8407,1872
8408,1759
8409,1531
8410,1421
8411,1296
8412,1222
8413,1155
8414,1086
8415,1040
8416,983
8417,955
8418,921
8419,971
8420,941
8421,945
8422,945
8423,1057
8424,1152
8425,1247
8426,1296
8427,1358
8428,1456
8429,1648
8430,1903
8431,2199
8432,2437
8433,2522
8434,2448
8435,2298
8436,2112
8437,1993
8438,1889
8439,1819
8440,1718
8441,1535
8442,1392
8443,1281
8444,1231
8445,1164
8446,1103
8447,1035
8448,978
8449,1002
8450,975
8451,941
8452,934
8453,970
8454,1006
8455,1124
8456,1197
8457,1280
8458,1356
8459,1433
8460,1490
8461,1621
8462,1821
8463,2115
8464,2450
8465,2662
8466,2703
8467,2614
8468,2416
8469,2178
8470,2122
8471,2032
8472,1926
8473,1646
8474,1412
8475,1255
8476,1109
8477,1050
8478,1023
8479,971
8480,944
8481,919
8482,879
8483,825
8484,845
8485,810
8486,822
8487,876
8488,897
8489,975
8490,1084
8491,1179
8492,1278
8493,1327
8494,1447
8495,1659
8496,1892
8497,2192
8498,2384
8499,2400
8500,2287
8501,2128
8502,1973
8503,1893
8504,1891
8505,1767
8506,1562
8507,1375
8508,1183
8509,1067
8510,1002
8511,964
8512,950
8513,965
8514,912
8515,933
8516,912
8517,929
8518,931
8519,934
8520,901
8521,935
8522,958
8523,1132
8524,1142
8525,1405
8526,1632
8527,1897
8528,2161
8529,2323
8530,2384
8531,2301
8532,2139
8533,2001
8534,1983
8535,1920
8536,1758
8537,1587
8538,1408
8539,1237
8540,1146
8541,1088
8542,1055
8543,1017
8544,978
8545,958
8546,898
8547,944
8548,959
8549,947
8550,965
8551,930
8552,966
8553,1023
8554,1041
8555,1267
8556,1586
8557,1903
8558,2153
8559,2261
8560,2270
8561,2151
8562,2000
8563,2033
8564,1940
8565,1863
8566,1682
8567,1473
8568,1291
8569,1168
8570,1040
8571,1054
8572,983
8573,957
8574,932
8575,926
8576,915
8577,929
8578,889
8579,926
8580,957
8581,950
8582,925
8583,1003
8584,983
8585,1286
8586,1706
8587,2007
8588,2198
8589,2207
8590,2151
8591,2006
8592,1996
8593,1939
8594,1901
8595,1760
8596,1535
8597,1298
8598,1106
8599,976
8600,901
8601,842
8602,800
8603,767
8604,752
8605,722
8606,710
8607,672
8608,745
8609,738
8610,783
8611,823
8612,852
8613,850
8614,848
8615,865
8616,1282
8617,1712
8618,2064
8619,2215
8620,2224
8621,2160
8622,2018
8623,2032
8624,1945
8625,1862
8626,1845
8627,1598
8628,1342
8629,1088
8630,955
8631,830
8632,765
8633,698
8634,621
8635,651
8636,582
8637,601
8638,631
8639,603
8640,699
8641,694
8642,753
8643,750
8644,795
8645,807
8646,831
8647,1067
8648,1506
8649,1914
8650,2112
8651,2211
8652,2160
8653,2062
8654,1966
8655,1893
8656,1882
8657,1831
8658,1644
8659,1356
8660,1136
8661,1001
8662,792
8663,789
8664,769
8665,733
8666,673
8667,655
8668,624
8669,653
8670,662
8671,733
8672,708
8673,752
8674,815
8675,810
8676,809
8677,786
8678,892
8679,1389
8680,1743
8681,1911
8682,1950
8683,1890
8684,1808
8685,1762
8686,1723
8687,1710
8688,1648
8689,1382
8690,1155
8691,938
8692,816
8693,718
8694,691
8695,658
8696,623
8697,592
8698,560
8699,499
8700,553
8701,591
8702,587
8703,561
8704,613
8705,692
8706,799
8707,845
8708,757
8709,793
8710,762
8711,909
8712,1273
8713,1680
8714,1904
8715,1959
8716,1925
8717,1903
8718,1862
8719,1811
8720,1691
8721,1700
8722,1439
8723,1136
8724,929
8725,768
8726,709
8727,578
8728,508
8729,480
8730,464
8731,525
8732,465
8733,469
8734,390
8735,494
8736,593
8737,628
8738,670
8739,677
8740,744
8741,670
8742,783
8743,783
8744,865
8745,929
8746,963
8747,1023
8748,1049
8749,1087
8750,1152
8751,1424
8752,1707
8753,1831
8754,1803
8755,1767
8756,1831
8757,1774
8758,1711
8759,1526
8760,1215
8761,973
8762,667
8763,579
8764,442
8765,400
8766,330
8767,330
8768,371
8769,338
8770,387
8771,469
8772,587
8773,601
8774,641
8775,657
8776,640
8777,710
8778,661
8779,666
8780,695
8781,707
8782,790
8783,913
8784,1007
8785,1051
8786,1098
8787,1150
8788,1267
8789,1495
8790,1802
8791,1969
8792,2022
8793,1936
8794,1759
8795,1710
8796,1684
8797,1637
8798,1484
8799,1152
8800,915
8801,741
8802,662
8803,599
8804,562
8805,542
8806,528
8807,511
8808,526
8809,511
8810,552
8811,590
8812,624
8813,640
8814,665
8815,687
8816,643
8817,699
8818,666
8819,713
8820,850
8821,1060
8822,1349
8823,1650
8824,1908
8825,1994
8826,1944
8827,1851
8828,1716
8829,1649
8830,1579
8831,1534
8832,1509
8833,1264
8834,1023
8835,855
8836,768
8837,720
8838,661
8839,624
8840,608
8841,597
8842,592
8843,607
8844,616
8845,653
8846,671
8847,663
8848,694
8849,723
8850,713
8851,694
8852,702
8853,709
8854,784
8855,959
8856,1313
8857,1693
8858,1937
8859,2013
8860,1901
8861,1805
8862,1771
8863,1719
8864,1702
8865,1415
8866,1087
8867,825
8868,642
8869,511
8870,453
8871,423
8872,429
8873,439
8874,444
8875,438
8876,458
8877,477
8878,479
8879,479
8880,496
8881,529
8882,565
8883,612
8884,604
8885,640
8886,645
8887,641
8888,670
8889,713
8890,811
8891,1103
8892,1486
8893,1758
8894,1855
8895,1795
8896,1703
8897,1686
8898,1650
8899,1632
8900,1425
8901,1129
8902,874
8903,656
8904,523
8905,431
8906,383
8907,384
8908,393
8909,432
8910,465
8911,482
8912,526
8913,564
8914,624
8915,627
8916,611
8917,656
8918,670
8919,683
8920,658
8921,705
8922,741
8923,816
8924,1069
8925,1413
8926,1665
8927,1719
8928,1665
8929,1609
8930,1601
8931,1573
8932,1521
8933,1413
8934,1137
8935,848
8936,642
8937,531
8938,432
8939,399
8940,400
8941,420
8942,425
8943,467
8944,482
8945,546
8946,585
8947,597
8948,621
8949,650
8950,659
8951,629
8952,654
8953,702
8954,762
8955,802
8956,907
8957,1137
8958,1522
8959,1836
8960,1981
8961,1968
8962,1883
8963,1799
8964,1773
8965,1710
8966,1712
8967,1508
8968,1210
8969,948
8970,750
8971,614
8972,529
8973,485
8974,492
8975,492
8976,498
8977,551
8978,573
8979,613
8980,640
8981,628
8982,639
8983,688
8984,674
8985,675
8986,714
8987,784
8988,824
8989,867
8990,944
8991,998
8992,1040
8993,1074
8994,1114
8995,1169
8996,1353
8997,1673
8998,1978
8999,2111
9000,2064
9001,1931
9002,1871
9003,1831
9004,1783
9005,1650
9006,1313
9007,1021
9008,804
9009,660
9010,565
9011,559
9012,511
9013,511
9014,535
9015,561
9016,592
9017,649
9018,655
9019,671
9020,663
9021,660
9022,660
9023,719
9024,698
9025,749
9026,786
9027,877
9028,931
9029,995
9030,1073
9031,1087
9032,1117
9033,1146
9034,1173
9035,1189
9036,1257
9037,1506
9038,1826
9039,2029
9040,2071
9041,1965
9042,1840
9043,1847
9044,1794
9045,1710
9046,1389
9047,1075
9048,847
9049,688
9050,593
9051,560
9052,553
9053,554
9054,542
9055,564
9056,577
9057,607
9058,645
9059,631
9060,611
9061,646
9062,631
9063,649
9064,674
9065,705
9066,747
9067,830
9068,890
9069,953
9070,1003
9071,1064
9072,1168
9073,1405
9074,1731
9075,1983
9076,2086
9077,2064
9078,1942
9079,1872
9080,1754
9081,1695
9082,1638
9083,1313
9084,1053
9085,816
9086,711
9087,676
9088,675
9089,715
9090,661
9091,656
9092,624
9093,637
9094,657
9095,670
9096,656
9097,690
9098,648
9099,685
9100,668
9101,716
9102,793
9103,963
9104,1040
9105,1137
9106,1227
9107,1266
9108,1283
9109,1327
9110,1462
9111,1691
9112,2042
9113,2302
9114,2379
9115,2304
9116,2183
9117,1962
9118,1841
9119,1765
9120,1711
9121,1421
9122,1142
9123,912
9124,802
9125,710
9126,678
9127,699
9128,687
9129,651
9130,614
9131,634
9132,608
9133,608
9134,651
9135,654
9136,627
9137,659
9138,657
9139,756
9140,806
9141,927
9142,1074
9143,1158
9144,1261
9145,1285
9146,1349
9147,1500
9148,1771
9149,2064
9150,2272
9151,2292
9152,2224
9153,2099
9154,1924
9155,1801
9156,1732
9157,1644
9158,1451
9159,1200
9160,995
9161,884
9162,803
9163,779
9164,783
9165,809
9166,718
9167,714
9168,727
9169,712
9170,689
9171,703
9172,697
9173,687
9174,711
9175,757
9176,790
9177,851
9178,998
9179,1107
9180,1317
9181,1622
9182,2037
9183,2277
9184,2412
9185,2359
9186,2150
9187,2080
9188,1923
9189,1811
9190,1755
9191,1664
9192,1501
9193,1267
9194,1137
9195,1071
9196,1008
9197,983
9198,867
9199,867
9200,874
9201,847
9202,796
9203,830
9204,778
9205,828
9206,868
9207,943
9208,1013
9209,1114
9210,1149
9211,1254
9212,1297
9213,1394
9214,1562
9215,1840
9216,2179
9217,2368
9218,2461
9219,2385
9220,2224
9221,2064
9222,1925
9223,1790
9224,1738
9225,1535
9226,1317
9227,1076
9228,944
9229,891
9230,842
9231,845
9232,669
9233,688
9234,640
9235,728
9236,581
9237,674
9238,683
9239,720
9240,827
9241,871
9242,993
9243,1104
9244,1276
9245,1378
9246,1578
9247,1872
9248,2259
9249,2546
9250,2638
9251,2547
9252,2409
9253,2197
9254,2017
9255,1851
9256,1764
9257,1674
9258,1408
9259,1246
9260,1127
9261,1072
9262,937
9263,883
9264,842
9265,814
9266,773
9267,773
9268,784
9269,788
9270,767
9271,790
9272,789
9273,782
9274,817
9275,909
9276,1058
9277,1297
9278,1632
9279,2003
9280,2231
9281,2353
9282,2323
9283,2222
9284,2040
9285,1878
9286,1735
9287,1698
9288,1652
9289,1502
9290,1291
9291,1161
9292,1059
9293,976
9294,928
9295,943
9296,886
9297,893
9298,807
9299,767
9300,752
9301,782
9302,777
9303,741
9304,801
9305,759
9306,782
9307,972
9308,1406
9309,1901
9310,2221
9311,2391
9312,2402
9313,2290
9314,2178
9315,2032
9316,1855
9317,1766
9318,1686
9319,1642
9320,1613
9321,1424
9322,1302
9323,1199
9324,1127
9325,1053
9326,976
9327,946
9328,912
9329,848
9330,816
9331,798
9332,791
9333,799
9334,794
9335,761
9336,816
9337,784
9338,928
9339,1299
9340,1782
9341,2173
9342,2352
9343,2351
9344,2285
9345,2141
9346,1973
9347,1765
9348,1666
9349,1680
9350,1600
9351,1334
9352,1214
9353,1085
9354,1023
9355,1031
9356,894
9357,837
9358,816
9359,805
9360,784
9361,781
9362,740
9363,704
9364,743
9365,769
9366,717
9367,739
9368,742
9369,849
9370,1008
9371,1235
9372,1602
9373,1984
9374,2252
9375,2331
9376,2224
9377,2149
9378,1991
9379,1734
9380,1645
9381,1653
9382,1499
9383,1239
9384,1040
9385,937
9386,1059
9387,800
9388,788
9389,801
9390,768
9391,724
9392,768
9393,768
9394,695
9395,704
9396,687
9397,703
9398,691
9399,727
9400,763
9401,711
9402,775
9403,879
9404,1057
9405,1211
9406,1484
9407,1801
9408,2063
9409,2259
9410,2295
9411,2160
9412,1954
9413,1798
9414,1696
9415,1666
9416,1487
9417,1194
9418,973
9419,879
9420,812
9421,806
9422,795
9423,788
9424,736
9425,727
9426,742
9427,703
9428,679
9429,633
9430,711
9431,723
9432,683
9433,692
9434,711
9435,722
9436,763
9437,927
9438,1295
9439,1264
9440,1376
9441,1621
9442,1881
9443,2058
9444,2192
9445,2165
9446,2031
9447,1808
9448,1701
9449,1687
9450,1584
9451,1360
9452,1123
9453,913
9454,867
9455,784
9456,753
9457,764
9458,741
9459,739
9460,733
9461,721
9462,729
9463,729
9464,688
9465,720
9466,713
9467,704
9468,738
9469,758
9470,912
9471,1058
9472,1168
9473,1282
9474,1454
9475,1658
9476,1894
9477,2070
9478,2125
9479,2066
9480,1929
9481,1727
9482,1680
9483,1666
9484,1618
9485,1406
9486,1153
9487,996
9488,910
9489,883
9490,853
9491,846
9492,849
9493,803
9494,811
9495,836
9496,814
9497,811
9498,817
9499,784
9500,816
9501,846
9502,797
9503,864
9504,1172
9505,1519
9506,1803
9507,2010
9508,2100
9509,2041
9510,1939
9511,1777
9512,1666
9513,1677
9514,1585
9515,1569
9516,1410
9517,1226
9518,1120
9519,1022
9520,1006
9521,976
9522,944
9523,901
9524,877
9525,895
9526,880
9527,848
9528,848
9529,848
9530,866
9531,876
9532,866
9533,869
9534,1211
9535,1623
9536,1975
9537,2208
9538,2287
9539,2192
9540,2062
9541,1882
9542,1789
9543,1733
9544,1701
9545,1642
9546,1473
9547,1291
9548,1185
9549,1108
9550,1070
9551,1033
9552,983
9553,976
9554,934
9555,884
9556,901
9557,870
9558,863
9559,858
9560,861
9561,849
9562,816
9563,878
9564,877
9565,1130
9566,1511
9567,1905
9568,2212
9569,2321
9570,2305
9571,2176
9572,1998
9573,1869
9574,1815
9575,1802
9576,1687
9577,1402
9578,1200
9579,1055
9580,974
9581,923
9582,911
9583,886
9584,850
9585,835
9586,818
9587,802
9588,789
9589,774
9590,778
9591,787
9592,757
9593,795
9594,770
9595,769
9596,834
9597,969
9598,1155
9599,1472
9600,1865
9601,2146
9602,2258
9603,2199
9604,2089
9605,1887
9606,1800
9607,1723
9608,1710
9609,1530
9610,1286
9611,1106
9612,985
9613,943
9614,897
9615,878
9616,834
9617,806
9618,797
9619,778
9620,741
9621,757
9622,742
9623,757
9624,724
9625,738
9626,754
9627,784
9628,910
9629,1074
9630,1335
9631,1679
9632,1953
9633,2122
9634,2109
9635,2005
9636,1837
9637,1686
9638,1659
9639,1601
9640,1504
9641,1309
9642,1099
9643,997
9644,944
9645,914
9646,855
9647,829
9648,803
9649,747
9650,750
9651,722
9652,715
9653,716
9654,689
9655,752
9656,736
9657,732
9658,730
9659,720
9660,730
9661,762
9662,869
9663,1158
9664,1488
9665,1792
9666,1958
9667,1955
9668,1866
9669,1711
9670,1622
9671,1627
9672,1564
9673,1509
9674,1205
9675,982
9676,819
9677,734
9678,681
9679,657
9680,671
9681,670
9682,659
9683,677
9684,675
9685,688
9686,670
9687,658
9688,684
9689,695
9690,663
9691,684
9692,691
9693,788
9694,965
9695,1127
9696,1216
9697,1374
9698,1614
9699,1890
9700,2098
9701,2151
9702,2096
9703,1937
9704,1757
9705,1737
9706,1643
9707,1643
9708,1431
9709,1221
9710,1023
9711,917
9712,823
9713,826
9714,810
9715,806
9716,775
9717,752
9718,710
9719,699
9720,718
9721,730
9722,746
9723,746
9724,853
9725,983
9726,1072
9727,1158
9728,1232
9729,1275
9730,1296
9731,1326
9732,1394
9733,1534
9734,1739
9735,1887
9736,1936
9737,1872
9738,1715
9739,1690
9740,1632
9741,1642
9742,1454
9743,1193
9744,925
9745,789
9746,692
9747,656
9748,656
9749,661
9750,686
9751,700
9752,716
9753,717
9754,705
9755,720
9756,691
9757,686
9758,698
9759,720
9760,846
9761,992
9762,1137
9763,1238
9764,1311
9765,1371
9766,1483
9767,1669
9768,1905
9769,2135
9770,2226
9771,2186
9772,2075
9773,1910
9774,1859
9775,1802
9776,1771
9777,1607
9778,1346
9779,1162
9780,1031
9781,973
9782,915
9783,895
9784,853
9785,834
9786,800
9787,779
9788,767
9789,752
9790,774
9791,726
9792,710
9793,738
9794,764
9795,887
9796,1072
9797,1211
9798,1338
9799,1415
9800,1474
9801,1554
9802,1666
9803,1898
9804,2139
9805,2275
9806,2274
9807,2160
9808,1954
9809,1877
9810,1808
9811,1737
9812,1397
9813,1067
9814,819
9815,688
9816,587
9817,560
9818,584
9819,613
9820,656
9821,682
9822,666
9823,700
9824,695
9825,707
9826,674
9827,715
9828,784
9829,960
9830,1102
9831,1204
9832,1292
9833,1341
9834,1386
9835,1457
9836,1529
9837,1707
9838,1918
9839,2113
9840,2198
9841,2209
9842,2187
9843,2002
9844,1899
9845,1808
9846,1789
9847,1581
9848,1251
9849,1040
9850,879
9851,791
9852,757
9853,752
9854,751
9855,784
9856,762
9857,759
9858,727
9859,735
9860,693
9861,766
9862,759
9863,818
9864,1009
9865,1170
9866,1281
9867,1426
9868,1620
9869,1893
9870,2176
9871,2346
9872,2407
9873,2363
9874,2228
9875,2056
9876,1913
9877,1840
9878,1828
9879,1591
9880,1337
9881,1165
9882,1040
9883,989
9884,969
9885,976
9886,944
9887,928
9888,916
9889,875
9890,881
9891,849
9892,854
9893,821
9894,874
9895,862
9896,807
9897,868
9898,1117
9899,1451
9900,1808
9901,2125
9902,2326
9903,2342
9904,2299
9905,2165
9906,1933
9907,1891
9908,1855
9909,1792
9910,1520
9911,1264
9912,1082
9913,982
9914,903
9915,838
9916,830
9917,810
9918,769
9919,752
9920,747
9921,779
9922,791
9923,764
9924,832
9925,833
9926,813
9927,843
9928,843
9929,869
9930,1055
9931,1281
9932,1687
9933,2057
9934,2364
9935,2499
9936,2455
9937,2322
9938,2128
9939,2017
9940,1978
9941,1889
9942,1633
9943,1328
9944,1091
9945,944
9946,854
9947,806
9948,800
9949,770
9950,784
9951,770
9952,775
9953,775
9954,733
9955,777
9956,784
9957,794
9958,757
9959,799
9960,805
9961,807
9962,850
9963,974
9964,1247
9965,1597
9966,1922
9967,2150
9968,2186
9969,2128
9970,1936
9971,1917
9972,1879
9973,1779
9974,1535
9975,1227
9976,997
9977,823
9978,695
9979,707
9980,560
9981,662
9982,670
9983,685
9984,682
9985,691
9986,693
9987,721
9988,733
9989,761
9990,785
9991,752
9992,780
9993,766
9994,799
9995,867
9996,1250
9997,1633
9998,1893
9999,2026
10000,2000
10001,1853
10002,1809
10003,1799
10004,1758
10005,1655
10006,1344
10007,1077
10008,891
10009,782
10010,751
10011,668
10012,663
10013,683
10014,662
10015,654
10016,659
10017,686
10018,670
10019,668
10020,723
10021,766
10022,806
10023,811
10024,769
10025,795
10026,797
10027,1143
10028,1563
10029,1862
10030,1939
10031,1973
10032,1866
10033,1863
10034,1811
10035,1773
10036,1683
10037,1362
10038,1119
10039,915
10040,806
10041,729
10042,708
10043,704
10044,690
10045,688
10046,677
10047,677
10048,671
10049,689
10050,690
10051,705
10052,745
10053,785
10054,780
10055,831
10056,815
10057,797
10058,829
10059,1222
10060,1617
10061,1886
10062,1967
10063,1967
10064,1841
10065,1837
10066,1771
10067,1774
10068,1605
10069,1317
10070,1075
10071,839
10072,687
10073,671
10074,630
10075,612
10076,610
10077,586
10078,589
10079,577
10080,592
10081,593
10082,614
10083,623
10084,655
10085,711
10086,727
10087,721
10088,745
10089,726
10090,742
10091,855
10092,1188
10093,1518
10094,1799
10095,1893
10096,1872
10097,1755
10098,1758
10099,1712
10100,1733
10101,1681
10102,1438
10103,1169
10104,947
10105,816
10106,739
10107,688
10108,666
10109,661
10110,649
10111,803
10112,692
10113,672
10114,693
10115,740
10116,752
10117,765
10118,793
10119,800
10120,816
10121,848
10122,848
10123,945
10124,1125
10125,1456
10126,1738
10127,1939
10128,1986
10129,1934
10130,1965
10131,1869
10132,1936
10133,1751
10134,1467
10135,1182
10136,964
10137,855
10138,676
10139,627
10140,669
10141,662
10142,654
10143,718
10144,724
10145,755
10146,775
10147,814
10148,837
10149,866
10150,874
10151,842
10152,981
10153,975
10154,1040
10155,1129
10156,1153
10157,1227
10158,1272
10159,1328
10160,1535
10161,1843
10162,1985
10163,1968
10164,1962
10165,1985
10166,1965
10167,1837
10168,1520
10169,1209
10170,942
10171,693
10172,587
10173,496
10174,456
10175,550
10176,511
10177,554
10178,589
10179,625
10180,737
10181,747
10182,789
10183,790
10184,794
10185,877
10186,897
10187,988
10188,997
10189,1012
10190,1076
10191,1202
10192,1196
10193,1255
10194,1297
10195,1391
10196,1667
10197,1789
10198,1829
10199,1854
10200,1857
10201,1882
10202,1755
10203,1414
10204,1127
10205,853
10206,674
10207,560
10208,535
10209,479
10210,467
10211,529
10212,563
10213,608
10214,638
10215,693
10216,724
10217,784
10218,767
10219,780
10220,831
10221,906
10222,927
10223,945
10224,1040
10225,1079
10226,1171
10227,1231
10228,1241
10229,1339
10230,1569
10231,1744
10232,1761
10233,1705
10234,1809
10235,1805
10236,1579
10237,1254
10238,891
10239,663
10240,461
10241,374
10242,297
10243,324
10244,351
10245,438
10246,457
10247,446
10248,527
10249,595
10250,641
10251,704
10252,698
10253,710
10254,741
10255,807
10256,879
10257,937
10258,1034
10259,1078
10260,1168
10261,1222
10262,1359
10263,1520
10264,1651
10265,1802
10266,1838
10267,1904
10268,1671
10269,1325
10270,944
10271,641
10272,405
10273,245
10274,196
10275,128
10276,217
10277,301
10278,351
10279,400
10280,474
10281,537
10282,619
10283,634
10284,656
10285,673
10286,736
10287,784
10288,783
10289,892
10290,925
10291,988
10292,1102
10293,1136
10294,1214
10295,1251
10296,1377
10297,1558
10298,1677
10299,1775
10300,1854
10301,1858
10302,1631
10303,1273
10304,951
10305,673
10306,467
10307,314
10308,247
10309,214
10310,226
10311,305
10312,354
10313,413
10314,483
10315,562
10316,619
10317,615
10318,673
10319,711
10320,752
10321,779
10322,848
10323,912
10324,977
10325,1078
10326,1107
10327,1175
10328,1229
10329,1299
10330,1385
10331,1514
10332,1630
10333,1728
10334,1767
10335,1819
10336,1622
10337,1286
10338,920
10339,642
10340,432
10341,281
10342,210
10343,187
10344,189
10345,260
10346,343
10347,420
10348,511
10349,576
10350,596
10351,625
10352,681
10353,717
10354,794
10355,830
10356,897
10357,1008
10358,1056
10359,1101
10360,1153
10361,1216
10362,1250
10363,1334
10364,1381
10365,1463
10366,1562
10367,1639
10368,1705
10369,1733
10370,1488
10371,1190
10372,884
10373,624
10374,433
10375,320
10376,272
10377,271
10378,310
10379,393
10380,511
10381,635
10382,635
10383,634
10384,689
10385,699
10386,709
10387,733
10388,829
10389,949
10390,1059
10391,1125
10392,1168
10393,1219
10394,1232
10395,1278
10396,1382
10397,1600
10398,1744
10399,1772
10400,1733
10401,1776
10402,1821
10403,1829
10404,1499
10405,1183
10406,906
10407,668
10408,496
10409,400
10410,400
10411,448
10412,453
10413,503
10414,560
10415,613
10416,618
10417,624
10418,637
10419,678
10420,660
10421,718
10422,691
10423,728
10424,785
10425,962
10426,1054
10427,1146
10428,1301
10429,1530
10430,1829
10431,2002
10432,2067
10433,2015
10434,1937
10435,2001
10436,1987
10437,1774
10438,1414
10439,1117
10440,889
10441,725
10442,628
10443,590
10444,586
10445,595
10446,614
10447,624
10448,654
10449,680
10450,733
10451,735
10452,763
10453,773
10454,767
10455,784
10456,809
10457,821
10458,857
10459,1003
10460,1297
10461,1621
10462,1870
10463,1986
10464,1975
10465,1885
10466,1858
10467,1903
10468,1907
10469,1643
10470,1319
10471,1078
10472,911
10473,805
10474,757
10475,743
10476,747
10477,754
10478,767
10479,769
10480,784
10481,795
10482,817
10483,816
10484,816
10485,825
10486,847
10487,859
10488,854
10489,848
10490,891
10491,980
10492,1327
10493,1718
10494,2005
10495,2144
10496,2140
10497,2038
10498,2010
10499,2014
10500,2000
10501,1746
10502,1406
10503,1136
10504,950
10505,805
10506,733
10507,718
10508,715
10509,720
10510,747
10511,769
10512,779
10513,789
10514,791
10515,805
10516,819
10517,817
10518,849
10519,866
10520,851
10521,909
10522,939
10523,922
10524,1289
10525,1684
10526,1965
10527,2084
10528,2065
10529,1958
10530,2014
10531,2004
10532,1999
10533,1677
10534,1360
10535,1114
10536,937
10537,858
10538,830
10539,805
10540,807
10541,812
10542,819
10543,813
10544,833
10545,839
10546,837
10547,854
10548,839
10549,851
10550,879
10551,854
10552,929
10553,919
10554,902
10555,970
10556,1359
10557,1770
10558,2037
10559,2142
10560,2079
10561,1973
10562,1955
10563,1990
10564,2000
10565,1767
10566,1424
10567,1181
10568,1014
10569,911
10570,869
10571,855
10572,846
10573,818
10574,815
10575,811
10576,792
10577,797
10578,825
10579,822
10580,849
10581,831
10582,852
10583,861
10584,880
10585,1101
10586,1482
10587,1872
10588,2079
10589,2130
10590,2043
10591,1926
10592,1845
10593,1779
10594,1751
10595,1639
10596,1520
10597,1223
10598,1078
10599,1011
10600,944
10601,916
10602,885
10603,851
10604,842
10605,837
10606,819
10607,848
10608,831
10609,805
10610,832
10611,843
10612,790
10613,802
10614,810
10615,1035
10616,1481
10617,1890
10618,2121
10619,2192
10620,2151
10621,1987
10622,1910
10623,1838
10624,1812
10625,1802
10626,1499
10627,1245
10628,1049
10629,918
10630,861
10631,816
10632,784
10633,759
10634,766
10635,732
10636,702
10637,734
10638,706
10639,688
10640,706
10641,681
10642,709
10643,751
10644,738
10645,941
10646,1327
10647,1733
10648,2000
10649,2171
10650,2167
10651,2053
10652,1910
10653,1872
10654,1818
10655,1797
10656,1617
10657,1302
10658,1076
10659,915
10660,842
10661,782
10662,784
10663,735
10664,738
10665,767
10666,733
10667,663
10668,722
10669,659
10670,683
10671,727
10672,653
10673,675
10674,710
10675,777
10676,880
10677,974
10678,1083
10679,1235
10680,1441
10681,1776
10682,2043
10683,2208
10684,2199
10685,2091
10686,1995
10687,1839
10688,1794
10689,1756
10690,1481
10691,1221
10692,955
10693,808
10694,700
10695,663
10696,689
10697,713
10698,670
10699,621
10700,640
10701,624
10702,630
10703,659
10704,631
10705,679
10706,717
10707,790
10708,892
10709,1011
10710,1118
10711,1186
10712,1301
10713,1419
10714,1631
10715,1899
10716,2102
10717,2183
10718,2089
10719,1932
10720,1805
10721,1726
10722,1664
10723,1585
10724,1328
10725,1008
10726,832
10727,714
10728,676
10729,661
10730,640
10731,607
10732,575
10733,541
10734,532
10735,599
10736,580
10737,624
10738,593
10739,651
10740,790
10741,985
10742,1143
10743,1244
10744,1317
10745,1378
10746,1437
10747,1563
10748,1773
10749,2032
10750,2182
10751,2192
10752,2071
10753,1914
10754,1776
10755,1713
10756,1677
10757,1632
10758,1232
10759,986
10760,802
10761,669
10762,651
10763,633
10764,656
10765,641
10766,628
10767,621
10768,610
10769,609
10770,614
10771,656
10772,645
10773,624
10774,636
10775,688
10776,848
10777,1053
10778,1185
10779,1328
10780,1424
10781,1593
10782,1847
10783,2109
10784,2263
10785,2246
10786,2142
10787,1950
10788,1809
10789,1776
10790,1723
10791,1667
10792,1423
10793,1129
10794,967
10795,863
10796,798
10797,784
10798,790
10799,809
10800,713
10801,751
10802,709
10803,699
10804,689
10805,698
10806,721
10807,713
10808,731
10809,855
10810,1082
10811,1223
10812,1318
10813,1446
10814,1571
10815,1713
10816,1978
10817,2248
10818,2399
10819,2400
10820,2302
10821,2149
10822,1939
10823,1871
10824,1846
10825,1776
10826,1600
10827,1352
10828,1202
10829,1153
10830,992
10831,952
10832,864
10833,759
10834,743
10835,762
10836,752
10837,799
10838,849
10839,919
10840,1003
10841,1119
10842,1088
10843,1292
10844,1392
10845,1555
10846,1807
10847,2077
10848,2397
10849,2512
10850,2463
10851,2334
10852,2177
10853,1979
10854,1770
10855,1692
10856,1681
10857,1449
10858,1281
10859,1157
10860,1041
10861,864
10862,793
10863,786
10864,706
10865,702
10866,699
10867,752
10868,806
10869,912
10870,1013
10871,1088
10872,1209
10873,1307
10874,1387
10875,1456
10876,1516
10877,1602
10878,1795
10879,2099
10880,2412
10881,2672
10882,2746
10883,2675
10884,2533
10885,2307
10886,2045
10887,1929
10888,1831
10889,1664
10890,1440
10891,1243
10892,1091
10893,944
10894,853
10895,816
10896,701
10897,672
10898,656
10899,683
10900,666
10901,703
10902,817
10903,894
10904,998
10905,1134
10906,1241
10907,1296
10908,1397
10909,1471
10910,1626
10911,1904
10912,2241
10913,2423
10914,2581
10915,2559
10916,2467
10917,2222
10918,1957
10919,1826
10920,1704
10921,1611
10922,1429
10923,1248
10924,1079
10925,962
10926,853
10927,770
10928,725
10929,707
10930,654
10931,649
10932,660
10933,707
10934,782
10935,864
10936,982
10937,1091
10938,1227
10939,1319
10940,1422
10941,1461
10942,1488
10943,1525
10944,1611
10945,1811
10946,2117
10947,2378
10948,2517
10949,2505
10950,2375
10951,2193
10952,1941
10953,1802
10954,1742
10955,1567
10956,1360
10957,1186
10958,1021
10959,910
10960,826
10961,754
10962,699
10963,640
10964,642
10965,618
10966,625
10967,631
10968,701
10969,816
10970,922
10971,1054
10972,1166
10973,1278
10974,1360
10975,1493
10976,1719
10977,2017
10978,2287
10979,2439
10980,2480
10981,2394
10982,2219
10983,1989
10984,1819
10985,1793
10986,1669
10987,1481
10988,1296
10989,1151
10990,1035
10991,950
10992,877
10993,835
10994,785
10995,765
10996,720
10997,722
10998,736
10999,767
11000,848
11001,947
11002,1072
11003,1164
11004,1246
11005,1319
11006,1457
11007,1713
11008,2058
11009,2350
11010,2538
11011,2581
11012,2506
11013,2324
11014,2101
11015,1977
11016,1886
11017,1745
11018,1500
11019,1290
11020,1099
11021,977
11022,903
11023,811
11024,735
11025,726
11026,707
11027,729
11028,663
11029,689
11030,746
11031,765
11032,806
11033,922
11034,1036
11035,1110
11036,1189
11037,1227
11038,1264
11039,1535
11040,1822
11041,2118
11042,2337
11043,2415
11044,2343
11045,2208
11046,2006
11047,1936
11048,1899
11049,1749
11050,1419
11051,1153
11052,969
11053,855
11054,810
11055,799
11056,771
11057,767
11058,749
11059,755
11060,738
11061,743
11062,713
11063,721
11064,737
11065,754
11066,774
11067,897
11068,1051
11069,1183
11070,1287
11071,1355
11072,1476
11073,1709
11074,1943
11075,2192
11076,2350
11077,2359
11078,2278
11079,2109
11080,2019
11081,1968
11082,1939
11083,1607
11084,1274
11085,1023
11086,877
11087,785
11088,743
11089,725
11090,740
11091,739
11092,743
11093,757
11094,765
11095,764
11096,743
11097,726
11098,737
11099,761
11100,791
11101,928
11102,1054
11103,1232
11104,1466
11105,1777
11106,2096
11107,2291
11108,2400
11109,2367
11110,2227
11111,2005
11112,1874
11113,1851
11114,1771
11115,1535
11116,1283
11117,1148
11118,1021
11119,962
11120,930
11121,887
11122,822
11123,778
11124,806
11125,799
11126,764
11127,763
11128,816
11129,833
11130,922
11131,986
11132,1084
11133,1166
11134,1225
11135,1275
11136,1328
11137,1390
11138,1553
11139,1845
11140,2160
11141,2414
11142,2489
11143,2439
11144,2305
11145,2054
11146,2012
11147,1945
11148,1795
11149,1510
11150,1238
11151,1040
11152,941
11153,874
11154,859
11155,848
11156,814
11157,786
11158,734
11159,739
11160,753
11161,762
11162,794
11163,781
11164,833
11165,945
11166,1047
11167,1139
11168,1207
11169,1258
11170,1280
11171,1358
11172,1562
11173,1847
11174,2119
11175,2285
11176,2306
11177,2220
11178,2032
11179,1876
11180,1826
11181,1792
11182,1533
11183,1247
11184,1021
11185,897
11186,818
11187,795
11188,790
11189,753
11190,718
11191,684
11192,689
11193,689
11194,677
11195,747
11196,751
11197,752
11198,845
11199,949
11200,1041
11201,1135
11202,1183
11203,1241
11204,1279
11205,1363
11206,1567
11207,1867
11208,2157
11209,2327
11210,2378
11211,2285
11212,2110
11213,1938
11214,1915
11215,1844
11216,1584
11217,1285
11218,1055
11219,897
11220,816
11221,773
11222,782
11223,774
11224,745
11225,705
11226,713
11227,677
11228,671
11229,686
11230,737
11231,704
11232,751
11233,839
11234,946
11235,1054
11236,1162
11237,1360
11238,1619
11239,1934
11240,2167
11241,2279
11242,2298
11243,2208
11244,2005
11245,1942
11246,1874
11247,1808
11248,1525
11249,1259
11250,1059
11251,926
11252,863
11253,843
11254,849
11255,815
11256,790
11257,747
11258,757
11259,747
11260,751
11261,739
11262,784
11263,815
11264,795
11265,887
11266,999
11267,1109
11268,1218
11269,1424
11270,1744
11271,2036
11272,2282
11273,2389
11274,2343
11275,2235
11276,2067
11277,1958
11278,1971
11279,1823
11280,1535
11281,1237
11282,1023
11283,868
11284,785
11285,762
11286,782
11287,777
11288,741
11289,725
11290,737
11291,725
11292,768
11293,774
11294,767
11295,787
11296,855
11297,864
11298,923
11299,1018
11300,1091
11301,1166
11302,1257
11303,1460
11304,1749
11305,2026
11306,2189
11307,2224
11308,2140
11309,1971
11310,1991
11311,2037
11312,1794
11313,1515
11314,1206
11315,960
11316,780
11317,717
11318,623
11319,583
11320,621
11321,621
11322,634
11323,666
11324,688
11325,707
11326,723
11327,720
11328,752
11329,805
11330,874
11331,893
11332,991
11333,1076
11334,1136
11335,1188
11336,1230
11337,1293
11338,1317
11339,1365
11340,1621
11341,1888
11342,2114
11343,2188
11344,2136
11345,2099
11346,2057
11347,1968
11348,1859
11349,1594
11350,1260
11351,1011
11352,777
11353,654
11354,578
11355,554
11356,558
11357,541
11358,495
11359,687
11360,576
11361,660
11362,735
11363,774
11364,749
11365,741
11366,837
11367,837
11368,944
11369,1040
11370,1066
11371,1173
11372,1213
11373,1286
11374,1421
11375,1387
11376,1595
11377,1877
11378,2078
11379,2138
11380,2097
11381,2047
11382,2037
11383,1979
11384,1826
11385,1554
11386,1200
11387,916
11388,722
11389,634
11390,576
11391,544
11392,544
11393,538
11394,559
11395,571
11396,603
11397,646
11398,698
11399,726
11400,739
11401,761
11402,807
11403,859
11404,909
11405,1003
11406,1171
11407,1170
11408,1237
11409,1326
11410,1346
11411,1383
11412,1440
11413,1561
11414,1808
11415,2022
11416,2123
11417,2087
11418,2081
11419,2032
11420,2057
11421,1933
11422,1642
11423,1315
11424,1058
11425,767
11426,654
11427,563
11428,511
11429,534
11430,529
11431,551
11432,599
11433,641
11434,693
11435,734
11436,789
11437,812
11438,836
11439,841
11440,890
11441,948
11442,1040
11443,1121
11444,1155
11445,1264
11446,1280
11447,1309
11448,1390
11449,1392
11450,1607
11451,1830
11452,1964
11453,1961
11454,2002
11455,2041
11456,2029
11457,1981
11458,1777
11459,1505
11460,1179
11461,896
11462,726
11463,671
11464,586
11465,529
11466,545
11467,563
11468,614
11469,597
11470,695
11471,730
11472,787
11473,827
11474,851
11475,951
11476,904
11477,1017
11478,1081
11479,1099
11480,1147
11481,1232
11482,1330
11483,1485
11484,1702
11485,1937
11486,2000
11487,1975
11488,2009
11489,2102
11490,1968
11491,1925
11492,1731
11493,1359
11494,1084
11495,854
11496,729
11497,640
11498,607
11499,624
11500,657
11501,625
11502,653
11503,763
11504,768
11505,787
11506,866
11507,872
11508,887
11509,905
11510,962
11511,1082
11512,1113
11513,1251
11514,1301
11515,1369
11516,1422
11517,1586
11518,1866
11519,2071
11520,2133
11521,2107
11522,2142
11523,2139
11524,2129
11525,2025
11526,1786
11527,1424
11528,1151
11529,901
11530,706
11531,609
11532,604
11533,559
11534,641
11535,573
11536,615
11537,602
11538,745
11539,754
11540,849
11541,876
11542,885
11543,901
11544,941
11545,1051
11546,1107
11547,1126
11548,1209
11549,1314
11550,1428
11551,1726
11552,2000
11553,2128
11554,2141
11555,2115
11556,2180
11557,2176
11558,2063
11559,1726
11560,1381
11561,1090
11562,785
11563,720
11564,637
11565,598
11566,583
11567,570
11568,562
11569,607
11570,642
11571,685
11572,738
11573,741
11574,822
11575,857
11576,887
11577,885
11578,894
11579,951
11580,1041
11581,1127
11582,1311
11583,1659
11584,1871
11585,2000
11586,1981
11587,2007
11588,2044
11589,2027
11590,1856
11591,1456
11592,1231
11593,973
11594,768
11595,606
11596,579
11597,539
11598,538
11599,563
11600,580
11601,581
11602,817
11603,672
11604,833
11605,832
11606,882
11607,827
11608,859
11609,917
11610,1035
11611,1136
11612,1217
11613,1266
11614,1386
11615,1611
11616,1883
11617,2111
11618,2187
11619,2223
11620,2103
11621,2000
11622,1931
11623,1885
11624,1856
11625,1505
11626,1190
11627,961
11628,799
11629,720
11630,674
11631,656
11632,677
11633,663
11634,677
11635,713
11636,743
11637,782
11638,764
11639,765
11640,791
11641,816
11642,784
11643,807
11644,939
11645,1101
11646,1230
11647,1337
11648,1489
11649,1751
11650,2043
11651,2258
11652,2358
11653,2355
11654,2267
11655,2124
11656,2066
11657,2003
11658,1970
11659,1706
11660,1375
11661,1154
11662,981
11663,894
11664,837
11665,815
11666,796
11667,787
11668,758
11669,806
11670,796
11671,816
11672,832
11673,850
11674,869
11675,836
11676,866
11677,893
11678,842
11679,883
11680,1072
11681,1360
11682,1708
11683,2016
11684,2215
11685,2288
11686,2253
11687,2130
11688,2018
11689,1984
11690,1909
11691,1891
11692,1711
11693,1394
11694,1210
11695,1062
11696,978
11697,926
11698,899
11699,880
11700,853
11701,850
11702,839
11703,863
11704,896
11705,880
11706,885
11707,877
11708,912
11709,878
11710,885
11711,992
11712,1156
11713,1297
11714,1473
11715,1710
11716,2003
11717,2263
11718,2407
11719,2425
11720,2374
11721,2224
11722,2130
11723,2069
11724,1984
11725,1997
11726,1694
11727,1394
11728,1183
11729,1057
11730,966
11731,911
11732,898
11733,863
11734,839
11735,829
11736,847
11737,862
11738,899
11739,896
11740,906
11741,874
11742,896
11743,899
11744,890
11745,1023
11746,1185
11747,1333
11748,1427
11749,1580
11750,1819
11751,2082
11752,2352
11753,2459
11754,2465
11755,2359
11756,2203
11757,2146
11758,2066
11759,2035
11760,1775
11761,1388
11762,1129
11763,918
11764,823
11765,751
11766,719
11767,694
11768,687
11769,702
11770,720
11771,752
11772,807
11773,830
11774,818
11775,845
11776,858
11777,885
11778,857
11779,933
11780,1042
11781,1137
11782,1232
11783,1312
11784,1386
11785,1559
11786,1825
11787,2098
11788,2281
11789,2324
11790,2259
11791,2197
11792,2160
11793,2100
11794,2063
11795,1699
11796,1337
11797,1062
11798,847
11799,715
11800,656
11801,642
11802,645
11803,663
11804,704
11805,730
11806,771
11807,833
11808,822
11809,817
11810,835
11811,831
11812,899
11813,892
11814,944
11815,1038
11816,1149
11817,1314
11818,1591
11819,1893
11820,2091
11821,2179
11822,2133
11823,2073
11824,2046
11825,2019
11826,1999
11827,1703
11828,1329
11829,1062
11830,880
11831,790
11832,723
11833,695
11834,706
11835,711
11836,747
11837,768
11838,787
11839,847
11840,845
11841,828
11842,817
11843,846
11844,1042
11845,925
11846,1035
11847,1123
11848,1246
11849,1455
11850,1724
11851,2023
11852,2215
11853,2252
11854,2203
11855,2091
11856,2113
11857,2041
11858,1995
11859,1651
11860,1274
11861,1041
11862,845
11863,772
11864,684
11865,661
11866,660
11867,669
11868,708
11869,747
11870,784
11871,801
11872,784
11873,783
11874,837
11875,848
11876,819
11877,844
11878,933
11879,1049
11880,1236
11881,1520
11882,1833
11883,2109
11884,2288
11885,2301
11886,2192
11887,2020
11888,1952
11889,1942
11890,1910
11891,1632
11892,1296
11893,1075
11894,908
11895,784
11896,752
11897,677
11898,677
11899,705
11900,747
11901,775
11902,816
11903,819
11904,815
11905,849
11906,789
11907,824
11908,944
11909,909
11910,960
11911,1053
11912,1155
11913,1299
11914,1563
11915,1850
11916,2089
11917,2197
11918,2155
11919,2005
11920,2023
11921,1984
11922,1937
11923,1616
11924,1269
11925,1019
11926,821
11927,747
11928,683
11929,662
11930,673
11931,692
11932,710
11933,753
11934,746
11935,802
11936,783
11937,806
11938,818
11939,816
11940,805
11941,848
11942,894
11943,1041
11944,1327
11945,1611
11946,1845
11947,1941
11948,1901
11949,1821
11950,1835
11951,1791
11952,1798
11953,1535
11954,1222
11955,969
11956,785
11957,721
11958,661
11959,672
11960,681
11961,683
11962,694
11963,749
11964,784
11965,768
11966,762
11967,758
11968,814
11969,793
11970,832
11971,829
11972,883
11973,1095
11974,1420
11975,1742
11976,1931
11977,1971
11978,1895
11979,1840
11980,1808
11981,1783
11982,1773
11983,1459
11984,1168
11985,925
11986,774
11987,674
11988,598
11989,592
11990,646
11991,656
11992,710
11993,730
11994,748
11995,738
11996,743
11997,779
11998,775
11999,733
12000,814
12001,823
12002,843
12003,935
12004,1023
12005,1141
12006,1366
12007,1711
12008,1980
12009,2096
12010,2085
12011,1929
12012,1902
12013,1867
12014,1844
12015,1793
12016,1507
12017,1195
12018,973
12019,809
12020,705
12021,688
12022,673
12023,677
12024,674
12025,703
12026,717
12027,711
12028,723
12029,720
12030,746
12031,717
12032,742
12033,727
12034,757
12035,891
12036,1069
12037,1217
12038,1406
12039,1674
12040,1929
12041,2192
12042,2288
12043,2263
12044,2160
12045,1989
12046,1987
12047,1922
12048,1871
12049,1498
12050,1201
12051,949
12052,799
12053,695
12054,642
12055,647
12056,641
12057,683
12058,739
12059,748
12060,723
12061,750
12062,718
12063,805
12064,807
12065,819
12066,879
12067,919
12068,949
12069,1018
12070,1085
12071,1136
12072,1248
12073,1457
12074,1701
12075,1914
12076,2019
12077,2000
12078,1890
12079,1906
12080,1882
12081,1827
12082,1613
12083,1302
12084,1089
12085,912
12086,806
12087,757
12088,784
12089,791
12090,912
12091,819
12092,779
12093,835
12094,863
12095,816
12096,848
12097,880
12098,912
12099,942
12100,1023
12101,1075
12102,1130
12103,1246
12104,1454
12105,1755
12106,1946
12107,2022
12108,1959
12109,1914
12110,1873
12111,1837
12112,1831
12113,1667
12114,1424
12115,1175
12116,1073
12117,975
12118,953
12119,914
12120,950
12121,859
12122,903
12123,893
12124,839
12125,943
12126,856
12127,833
12128,897
12129,917
12130,969
12131,934
12132,1104
12133,1305
12134,1618
12135,1883
12136,2132
12137,2184
12138,2090
12139,2003
12140,1957
12141,1889
12142,1811
12143,1763
12144,1486
12145,1243
12146,1104
12147,993
12148,955
12149,941
12150,927
12151,866
12152,816
12153,784
12154,826
12155,845
12156,779
12157,816
12158,822
12159,811
12160,897
12161,957
12162,1040
12163,1130
12164,1201
12165,1467
12166,1840
12167,2106
12168,2286
12169,2256
12170,2159
12171,2031
12172,1951
12173,1897
12174,1779
12175,1699
12176,1415
12177,1168
12178,982
12179,877
12180,903
12181,835
12182,816
12183,714
12184,769
12185,650
12186,731
12187,742
12188,785
12189,816
12190,880
12191,928
12192,1010
12193,1087
12194,1126
12195,1201
12196,1353
12197,1584
12198,1897
12199,2175
12200,2302
12201,2223
12202,2217
12203,2136
12204,1963
12205,1846
12206,1767
12207,1664
12208,1393
12209,1201
12210,1019
12211,955
12212,891
12213,789
12214,730
12215,710
12216,679
12217,683
12218,688
12219,721
12220,754
12221,798
12222,858
12223,944
12224,1023
12225,1119
12226,1168
12227,1251
