Index,Amplitude (0-4096)
0,1239
1,1226
2,1171
3,1142
4,1148
5,1161
6,1158
7,1170
8,1131
9,1137
10,1103
11,1114
12,1118
13,1116
14,1126
15,1193
16,1307
17,1463
18,1514
19,1503
20,1467
21,1406
22,1391
23,1389
24,1339
25,1337
26,1299
27,1293
28,1279
29,1235
30,1173
31,1202
32,1190
33,1200
34,1146
35,1165
36,1154
37,1150
38,1138
39,1174
40,1139
41,1135
42,1123
43,1129
44,1122
45,1119
46,1195
47,1298
48,1424
49,1535
50,1535
51,1513
52,1439
53,1429
54,1443
55,1410
56,1389
57,1339
58,1275
59,1270
60,1259
61,1235
62,1183
63,1178
64,1193
65,1179
66,1162
67,1173
68,1197
69,1200
70,1148
71,1139
72,1149
73,1150
74,1182
75,1146
76,1155
77,1154
78,1152
79,1194
80,1248
81,1358
82,1493
83,1584
84,1616
85,1558
86,1522
87,1474
88,1485
89,1456
90,1424
91,1380
92,1323
93,1303
94,1279
95,1273
96,1216
97,1232
98,1193
99,1186
100,1230
101,1173
102,1194
103,1145
104,1187
105,1159
106,1216
107,1152
108,1167
109,1152
110,1168
111,1162
112,1181
113,1239
114,1344
115,1472
116,1577
117,1602
118,1562
119,1504
120,1508
121,1447
122,1411
123,1417
124,1371
125,1331
126,1303
127,1271
128,1232
129,1233
130,1251
131,1216
132,1249
133,1214
134,1182
135,1218
136,1209
137,1218
138,1183
139,1165
140,1154
141,1154
142,1174
143,1175
144,1286
145,1397
146,1517
147,1583
148,1566
149,1472
150,1511
151,1462
152,1429
153,1328
154,1360
155,1291
156,1284
157,1251
158,1259
159,1234
160,1233
161,1209
162,1231
163,1206
164,1195
165,1247
166,1211
167,1158
168,1219
169,1211
170,1170
171,1199
172,1184
173,1157
174,1200
175,1207
176,1297
177,1424
178,1486
179,1456
180,1473
181,1487
182,1415
183,1373
184,1332
185,1291
186,1212
187,1199
188,1215
189,1181
190,1191
191,1197
192,1195
193,1173
194,1136
195,1181
196,1136
197,1126
198,1104
199,1159
200,1143
201,1087
202,1092
203,1047
204,1105
205,1116
206,1145
207,1168
208,1325
209,1413
210,1403
211,1438
212,1425
213,1378
214,1342
215,1342
216,1210
217,1090
218,1122
219,1152
220,1093
221,1115
222,1061
223,1143
224,1104
225,1109
226,1136
227,1123
228,1123
229,1094
230,1141
231,1135
232,1104
233,1088
234,1130
235,1083
236,1104
237,1122
238,1001
239,1126
240,1152
241,1249
242,1343
243,1387
244,1399
245,1426
246,1375
247,1320
248,1235
249,1138
250,1137
251,1125
252,1133
253,1200
254,1234
255,1121
256,1147
257,1130
258,1135
259,1134
260,1104
261,1135
262,1152
263,1135
264,1136
265,1118
266,1103
267,1151
268,1106
269,1106
270,1136
271,1086
272,1116
273,1186
274,1292
275,1298
276,1346
277,1248
278,1373
279,1333
280,1281
281,1229
282,1194
283,1174
284,1169
285,1172
286,1177
287,1133
288,1152
289,1133
290,1104
291,1153
292,1165
293,1104
294,1147
295,1126
296,1133
297,1119
298,1169
299,1066
300,1111
301,1119
302,1134
303,1131
304,1142
305,1264
306,1358
307,1405
308,1397
309,1407
310,1403
311,1402
312,1316
313,1291
314,1227
315,1200
316,1191
317,1114
318,1200
319,1199
320,1177
321,1151
322,1090
323,1079
324,1190
325,1148
326,1127
327,1104
328,1053
329,1074
330,1102
331,1070
332,1055
333,1066
334,1090
335,1086
336,1069
337,1168
338,1266
339,1338
340,1342
341,1334
342,1330
343,1284
344,1324
345,1277
346,1367
347,1265
348,1234
349,1190
350,1217
351,1165
352,1114
353,1109
354,1138
355,1120
356,1154
357,1081
358,1095
359,1062
360,1114
361,1042
362,1077
363,1058
364,1088
365,1077
366,1078
367,1089
368,1161
369,1225
370,1333
371,1360
372,1344
373,1307
374,1386
375,1328
376,1290
377,1283
378,1274
379,1295
380,1375
381,1203
382,1178
383,1153
384,1187
385,1151
386,1136
387,1124
388,1141
389,1121
390,1153
391,1104
392,1157
393,1147
394,1136
395,1095
396,1093
397,1083
398,1093
399,1108
400,1184
401,1313
402,1406
403,1415
404,1406
405,1360
406,1333
407,1314
408,1310
409,1290
410,1293
411,1262
412,1245
413,1210
414,1191
415,1184
416,1158
417,1157
418,1185
419,1169
420,1184
421,1184
422,1187
423,1187
424,1168
425,1183
426,1165
427,1179
428,1197
429,1219
430,1283
431,1377
432,1456
433,1487
434,1487
435,1445
436,1418
437,1370
438,1355
439,1359
440,1297
441,1290
442,1295
443,1267
444,1222
445,1217
446,1207
447,1200
448,1207
449,1204
450,1215
451,1211
452,1193
453,1192
454,1188
455,1191
456,1198
457,1197
458,1242
459,1328
460,1431
461,1522
462,1582
463,1535
464,1488
465,1442
466,1469
467,1406
468,1376
469,1357
470,1347
471,1330
472,1255
473,1237
474,1278
475,1232
476,1214
477,1211
478,1214
479,1200
480,1189
481,1189
482,1182
483,1190
484,1200
485,1186
486,1210
487,1245
488,1345
489,1482
490,1585
491,1621
492,1591
493,1523
494,1469
495,1456
496,1422
497,1392
498,1363
499,1355
500,1297
501,1270
502,1300
503,1239
504,1215
505,1236
506,1201
507,1213
508,1204
509,1197
510,1201
511,1183
512,1206
513,1167
514,1168
515,1168
516,1201
517,1277
518,1390
519,1481
520,1509
521,1498
522,1425
523,1394
524,1389
525,1360
526,1295
527,1293
528,1264
529,1248
530,1210
531,1264
532,1173
533,1179
534,1170
535,1171
536,1183
537,1198
538,1187
539,1193
540,1197
541,1187
542,1219
543,1229
544,1267
545,1330
546,1463
547,1535
548,1571
549,1571
550,1488
551,1473
552,1403
553,1415
554,1373
555,1344
556,1321
557,1275
558,1275
559,1232
560,1234
561,1251
562,1213
563,1200
564,1232
565,1227
566,1238
567,1232
568,1241
569,1264
570,1254
571,1298
572,1278
573,1371
574,1467
575,1535
576,1554
577,1531
578,1520
579,1505
580,1455
581,1486
582,1458
583,1401
584,1360
585,1340
586,1324
587,1265
588,1286
589,1234
590,1266
591,1283
592,1303
593,1307
594,1264
595,1253
596,1250
597,1269
598,1309
599,1291
600,1413
601,1535
602,1623
603,1627
604,1578
605,1611
606,1535
607,1562
608,1493
609,1441
610,1405
611,1342
612,1275
613,1232
614,1264
615,1211
616,1216
617,1216
618,1190
619,1229
620,1221
621,1182
622,1258
623,1246
624,1249
625,1309
626,1356
627,1443
628,1562
629,1584
630,1559
631,1535
632,1473
633,1431
634,1407
635,1341
636,1289
637,1283
638,1229
639,1238
640,1232
641,1244
642,1262
643,1252
644,1266
645,1266
646,1278
647,1350
648,1296
649,1328
650,1316
651,1348
652,1372
653,1413
654,1503
655,1581
656,1614
657,1632
658,1596
659,1581
660,1529
661,1520
662,1499
663,1473
664,1437
665,1443
666,1425
667,1429
668,1505
669,1483
670,1439
671,1456
672,1492
673,1467
674,1489
675,1499
676,1490
677,1494
678,1511
679,1520
680,1579
681,1599
682,1669
683,1664
684,1673
685,1631
686,1636
687,1643
688,1616
689,1605
690,1583
691,1575
692,1590
693,1591
694,1586
695,1596
696,1594
697,1616
698,1605
699,1620
700,1655
701,1613
702,1646
703,1639
704,1643
705,1648
706,1651
707,1681
708,1707
709,1744
710,1765
711,1712
712,1733
713,1742
714,1717
715,1702
716,1754
717,1695
718,1706
719,1687
720,1702
721,1687
722,1755
723,1738
724,1705
725,1744
726,1744
727,1761
728,1604
729,1759
730,1782
731,1749
732,1744
733,1769
734,1776
735,1826
736,1831
737,1797
738,1821
739,1820
740,1807
741,1809
742,1801
743,1815
744,1786
745,1776
746,1775
747,1773
748,1769
749,1793
750,1793
751,1801
752,1689
753,1799
754,1762
755,1898
756,1802
757,1845
758,1798
759,1826
760,1829
761,1806
762,1873
763,1870
764,1855
765,1870
766,1862
767,1855
768,1840
769,1862
770,1831
771,1811
772,1818
773,1778
774,1811
775,1783
776,1826
777,1863
778,1823
779,1769
780,1818
781,1809
782,1977
783,1844
784,1889
785,1823
786,1814
787,1853
788,1843
789,1852
790,1866
791,1838
792,1879
793,1859
794,1863
795,1866
796,1840
797,1842
798,1843
799,1830
800,1850
801,1842
802,1761
803,1777
804,1779
805,1826
806,1815
807,1877
808,1821
809,2096
810,1841
811,1776
812,1826
813,1809
814,1875
815,1780
816,1859
817,1951
818,1904
819,1835
820,1840
821,1855
822,1807
823,1851
824,1843
825,1862
826,1834
827,1837
828,1841
829,1840
830,1840
831,1843
832,1827
833,1829
834,1824
835,1840
836,1829
837,1838
838,1828
839,1819
840,1834
841,1833
842,1840
843,1831
844,1870
845,1840
846,1819
847,1815
848,1808
849,1792
850,1806
851,1778
852,1792
853,1791
854,1792
855,1787
856,1787
857,1783
858,1787
859,1784
860,1778
861,1778
862,1792
863,1773
864,1787
865,1779
866,1794
867,1787
868,1797
869,1810
870,1808
871,1821
872,1803
873,1789
874,1788
875,1757
876,1753
877,1766
878,1761
879,1773
880,1749
881,1775
882,1758
883,1749
884,1776
885,1746
886,1751
887,1746
888,1758
889,1759
890,1745
891,1743
892,1744
893,1761
894,1790
895,1820
896,1822
897,1843
898,1842
899,1830
900,1799
901,1773
902,1741
903,1736
904,1715
905,1694
906,1705
907,1694
908,1690
909,1677
910,1677
911,1675
912,1668
913,1664
914,1643
915,1637
916,1625
917,1637
918,1623
919,1624
920,1658
921,1685
922,1738
923,1767
924,1763
925,1776
926,1749
927,1700
928,1663
929,1639
930,1587
931,1585
932,1555
933,1533
934,1523
935,1510
936,1522
937,1520
938,1535
939,1525
940,1520
941,1499
942,1487
943,1480
944,1485
945,1469
946,1488
947,1527
948,1575
949,1631
950,1627
951,1619
952,1597
953,1534
954,1523
955,1535
956,1463
957,1473
958,1417
959,1419
960,1398
961,1387
962,1370
963,1377
964,1360
965,1363
966,1345
967,1341
968,1363
969,1307
970,1335
971,1337
972,1330
973,1358
974,1392
975,1403
976,1397
977,1392
978,1358
979,1351
980,1351
981,1342
982,1313
983,1332
984,1280
985,1293
986,1253
987,1241
988,1244
989,1246
990,1257
991,1246
992,1220
993,1217
994,1221
995,1214
996,1242
997,1204
998,1187
999,1229
1000,1223
1001,1206
1002,1252
1003,1281
1004,1317
1005,1331
1006,1317
1007,1303
1008,1295
1009,1290
1010,1253
1011,1291
1012,1281
1013,1226
1014,1215
1015,1205
1016,1236
1017,1200
1018,1209
1019,1202
1020,1191
1021,1185
1022,1201
1023,1201
1024,1175
1025,1168
1026,1181
1027,1173
1028,1203
1029,1191
1030,1175
1031,1249
1032,1147
1033,1216
1034,1233
1035,1275
1036,1250
1037,1281
1038,1319
1039,1287
1040,1279
1041,1259
1042,1283
1043,1269
1044,1259
1045,1202
1046,1199
1047,1249
1048,1214
1049,1237
1050,1264
1051,1251
1052,1229
1053,1235
1054,1195
1055,1250
1056,1264
1057,1248
1058,1264
1059,1215
1060,1264
1061,1270
1062,1202
1063,1319
1064,1291
1065,1319
1066,1298
1067,1316
1068,1290
1069,1263
1070,1277
1071,1296
1072,1281
1073,1245
1074,1249
1075,1197
1076,1202
1077,1280
1078,1278
1079,1216
1080,1257
1081,1261
1082,1265
1083,1264
1084,1267
1085,1248
1086,1251
1087,1241
1088,1269
1089,1276
1090,1249
1091,1296
1092,1302
1093,1332
1094,1328
1095,1347
1096,1314
1097,1242
1098,1311
1099,1267
1100,1263
1101,1439
1102,1265
1103,1199
1104,1244
1105,1224
1106,1303
1107,1248
1108,1250
1109,1198
1110,1202
1111,1242
1112,1243
1113,1258
1114,1216
1115,1233
1116,1213
1117,1220
1118,1202
1119,1223
1120,1232
1121,1286
1122,1330
1123,1295
1124,1252
1125,1293
1126,1318
1127,1296
1128,1298
1129,1296
1130,1262
1131,1289
1132,1315
1133,1295
1134,1269
1135,1278
1136,1190
1137,1262
1138,1281
1139,1280
1140,1264
1141,1301
1142,1264
1143,1269
1144,1264
1145,1297
1146,1249
1147,1293
1148,1274
1149,1293
1150,1316
1151,1331
1152,1363
1153,1389
1154,1374
1155,1358
1156,1339
1157,1327
1158,1269
1159,1282
1160,1264
1161,1266
1162,1285
1163,1273
1164,1274
1165,1259
1166,1281
1167,1289
1168,1279
1169,1228
1170,1264
1171,1232
1172,1248
1173,1250
1174,1310
1175,1229
1176,1233
1177,1195
1178,1280
1179,1255
1180,1250
1181,1197
1182,1191
1183,1264
1184,1345
1185,1323
1186,1328
1187,1314
1188,1333
1189,1351
1190,1286
1191,1278
1192,1235
1193,1235
1194,1227
1195,1200
1196,1205
1197,1211
1198,1214
1199,1186
1200,1239
1201,1200
1202,1194
1203,1179
1204,1179
1205,1169
1206,1193
1207,1168
1208,1168
1209,1134
1210,1130
1211,1152
1212,1189
1213,1168
1214,1223
1215,1232
1216,1253
1217,1266
1218,1289
1219,1269
1220,1254
1221,1245
1222,1206
1223,1233
1224,1205
1225,1182
1226,1159
1227,1200
1228,1232
1229,1210
1230,1136
1231,1151
1232,1201
1233,1152
1234,1179
1235,1181
1236,1140
1237,1119
1238,1147
1239,1137
1240,1117
1241,1147
1242,1137
1243,1166
1244,1179
1245,1246
1246,1255
1247,1229
1248,1259
1249,1286
1250,1297
1251,1238
1252,1230
1253,1203
1254,1193
1255,1184
1256,1126
1257,1168
1258,1164
1259,1124
1260,1125
1261,1142
1262,1170
1263,1157
1264,1136
1265,1133
1266,1123
1267,1151
1268,1117
1269,1120
1270,1117
1271,1109
1272,1113
1273,1114
1274,1126
1275,1143
1276,1172
1277,1214
1278,1268
1279,1290
1280,1291
1281,1255
1282,1246
1283,1239
1284,1248
1285,1242
1286,1248
1287,1201
1288,1159
1289,1175
1290,1188
1291,1207
1292,1153
1293,1178
1294,1183
1295,1203
1296,1221
1297,1197
1298,1194
1299,1188
1300,1167
1301,1178
1302,1168
1303,1213
1304,1215
1305,1220
1306,1171
1307,1185
1308,1203
1309,1247
1310,1282
1311,1300
1312,1309
1313,1370
1314,1323
1315,1314
1316,1275
1317,1247
1318,1239
1319,1232
1320,1207
1321,1211
1322,1200
1323,1200
1324,1169
1325,1207
1326,1170
1327,1198
1328,1206
1329,1223
1330,1243
1331,1169
1332,1168
1333,1254
1334,1221
1335,1188
1336,1170
1337,1264
1338,1206
1339,1246
1340,1213
1341,1226
1342,1286
1343,1299
1344,1331
1345,1381
1346,1344
1347,1332
1348,1383
1349,1347
1350,1330
1351,1321
1352,1285
1353,1263
1354,1239
1355,1259
1356,1247
1357,1196
1358,1207
1359,1258
1360,1222
1361,1230
1362,1233
1363,1232
1364,1210
1365,1266
1366,1247
1367,1264
1368,1211
1369,1235
1370,1227
1371,1216
1372,1277
1373,1261
1374,1281
1375,1329
1376,1360
1377,1358
1378,1415
1379,1413
1380,1351
1381,1360
1382,1335
1383,1318
1384,1303
1385,1236
1386,1237
1387,1246
1388,1235
1389,1235
1390,1266
1391,1264
1392,1214
1393,1249
1394,1258
1395,1215
1396,1249
1397,1236
1398,1173
1399,1177
1400,1195
1401,1231
1402,1214
1403,1232
1404,1200
1405,1216
1406,1264
1407,1309
1408,1343
1409,1373
1410,1367
1411,1359
1412,1394
1413,1329
1414,1338
1415,1319
1416,1294
1417,1275
1418,1262
1419,1183
1420,1232
1421,1232
1422,1177
1423,1191
1424,1187
1425,1198
1426,1200
1427,1206
1428,1186
1429,1216
1430,1200
1431,1183
1432,1189
1433,1179
1434,1168
1435,1175
1436,1220
1437,1195
1438,1179
1439,1217
1440,1274
1441,1334
1442,1379
1443,1358
1444,1419
1445,1422
1446,1359
1447,1370
1448,1343
1449,1313
1450,1283
1451,1238
1452,1253
1453,1216
1454,1238
1455,1152
1456,1225
1457,1166
1458,1182
1459,1169
1460,1222
1461,1205
1462,1209
1463,1218
1464,1168
1465,1167
1466,1182
1467,1187
1468,1149
1469,1150
1470,1218
1471,1204
1472,1202
1473,1194
1474,1206
1475,1245
1476,1319
1477,1367
1478,1363
1479,1364
1480,1379
1481,1366
1482,1388
1483,1338
1484,1282
1485,1293
1486,1259
1487,1260
1488,1206
1489,1191
1490,1168
1491,1194
1492,1241
1493,1187
1494,1183
1495,1181
1496,1155
1497,1168
1498,1166
1499,1178
1500,1183
1501,1171
1502,1196
1503,1231
1504,1185
1505,1216
1506,1223
1507,1219
1508,1232
1509,1275
1510,1334
1511,1408
1512,1445
1513,1441
1514,1423
1515,1398
1516,1377
1517,1365
1518,1351
1519,1298
1520,1282
1521,1277
1522,1245
1523,1242
1524,1234
1525,1264
1526,1237
1527,1279
1528,1278
1529,1270
1530,1298
1531,1297
1532,1294
1533,1291
1534,1326
1535,1319
1536,1327
1537,1312
1538,1333
1539,1317
1540,1344
1541,1360
1542,1375
1543,1413
1544,1456
1545,1531
1546,1590
1547,1535
1548,1535
1549,1514
1550,1488
1551,1456
1552,1393
1553,1363
1554,1351
1555,1332
1556,1319
1557,1328
1558,1318
1559,1328
1560,1347
1561,1360
1562,1360
1563,1387
1564,1360
1565,1374
1566,1347
1567,1363
1568,1356
1569,1370
1570,1381
1571,1395
1572,1383
1573,1418
1574,1510
1575,1525
1576,1535
1577,1627
1578,1584
1579,1522
1580,1499
1581,1475
1582,1412
1583,1354
1584,1343
1585,1305
1586,1296
1587,1328
1588,1282
1589,1296
1590,1337
1591,1360
1592,1301
1593,1269
1594,1328
1595,1282
1596,1285
1597,1301
1598,1302
1599,1254
1600,1264
1601,1264
1602,1296
1603,1328
1604,1382
1605,1472
1606,1535
1607,1591
1608,1575
1609,1533
1610,1493
1611,1450
1612,1407
1613,1362
1614,1318
1615,1345
1616,1267
1617,1262
1618,1297
1619,1296
1620,1323
1621,1301
1622,1335
1623,1335
1624,1361
1625,1343
1626,1339
1627,1345
1628,1378
1629,1392
1630,1390
1631,1401
1632,1418
1633,1428
1634,1509
1635,1597
1636,1654
1637,1725
1638,1730
1639,1707
1640,1610
1641,1578
1642,1535
1643,1498
1644,1472
1645,1475
1646,1429
1647,1443
1648,1422
1649,1439
1650,1471
1651,1450
1652,1482
1653,1469
1654,1440
1655,1456
1656,1447
1657,1453
1658,1441
1659,1459
1660,1456
1661,1456
1662,1461
1663,1535
1664,1627
1665,1709
1666,1712
1667,1746
1668,1690
1669,1655
1670,1677
1671,1516
1672,1488
1673,1451
1674,1423
1675,1423
1676,1438
1677,1442
1678,1485
1679,1471
1680,1461
1681,1468
1682,1488
1683,1433
1684,1459
1685,1473
1686,1436
1687,1459
1688,1456
1689,1466
1690,1437
1691,1487
1692,1612
1693,1664
1694,1735
1695,1723
1696,1703
1697,1600
1698,1525
1699,1379
1700,1415
1701,1356
1702,1296
1703,1286
1704,1237
1705,1251
1706,1200
1707,1223
1708,1243
1709,1255
1710,1206
1711,1237
1712,1194
1713,1196
1714,1150
1715,1176
1716,1151
1717,1153
1718,1132
1719,1199
1720,1303
1721,1267
1722,1390
1723,1424
1724,1487
1725,1451
1726,1392
1727,1339
1728,1333
1729,1309
1730,1314
1731,1316
1732,1314
1733,1232
1734,1181
1735,1200
1736,1201
1737,1175
1738,1210
1739,1225
1740,1203
1741,1243
1742,1199
1743,1175
1744,1205
1745,1172
1746,1188
1747,1168
1748,1182
1749,1209
1750,1233
1751,1343
1752,1407
1753,1513
1754,1483
1755,1471
1756,1408
1757,1374
1758,1309
1759,1321
1760,1264
1761,1288
1762,1200
1763,1216
1764,1198
1765,1228
1766,1202
1767,1232
1768,1234
1769,1206
1770,1220
1771,1214
1772,1190
1773,1200
1774,1186
1775,1184
1776,1182
1777,1176
1778,1141
1779,1153
1780,1166
1781,1229
1782,1287
1783,1390
1784,1436
1785,1447
1786,1388
1787,1331
1788,1321
1789,1301
1790,1296
1791,1249
1792,1258
1793,1237
1794,1168
1795,1180
1796,1168
1797,1181
1798,1151
1799,1155
1800,1139
1801,1208
1802,1151
1803,1139
1804,1174
1805,1155
1806,1141
1807,1168
1808,1131
1809,1133
1810,1138
1811,1153
1812,1221
1813,1309
1814,1369
1815,1385
1816,1360
1817,1317
1818,1305
1819,1326
1820,1279
1821,1274
1822,1245
1823,1206
1824,1197
1825,1162
1826,1136
1827,1152
1828,1126
1829,1143
1830,1159
1831,1136
1832,1139
1833,1146
1834,1136
1835,1159
1836,1155
1837,1127
1838,1148
1839,1127
1840,1140
1841,1195
1842,1255
1843,1358
1844,1399
1845,1410
1846,1371
1847,1323
1848,1302
1849,1299
1850,1281
1851,1236
1852,1215
1853,1238
1854,1185
1855,1156
1856,1145
1857,1153
1858,1163
1859,1159
1860,1166
1861,1158
1862,1167
1863,1142
1864,1178
1865,1159
1866,1147
1867,1143
1868,1135
1869,1136
1870,1145
1871,1154
1872,1190
1873,1264
1874,1344
1875,1407
1876,1388
1877,1370
1878,1328
1879,1296
1880,1296
1881,1277
1882,1264
1883,1227
1884,1175
1885,1147
1886,1143
1887,1153
1888,1153
1889,1146
1890,1163
1891,1151
1892,1152
1893,1165
1894,1153
1895,1139
1896,1142
1897,1165
1898,1142
1899,1168
1900,1136
1901,1188
1902,1129
1903,1136
1904,1203
1905,1290
1906,1347
1907,1365
1908,1343
1909,1315
1910,1299
1911,1278
1912,1285
1913,1252
1914,1201
1915,1216
1916,1184
1917,1193
1918,1152
1919,1143
1920,1169
1921,1140
1922,1130
1923,1144
1924,1137
1925,1174
1926,1155
1927,1139
1928,1174
1929,1150
1930,1127
1931,1127
1932,1136
1933,1109
1934,1111
1935,1114
1936,1141
1937,1202
1938,1282
1939,1323
1940,1321
1941,1295
1942,1277
1943,1319
1944,1237
1945,1259
1946,1232
1947,1157
1948,1165
1949,1153
1950,1113
1951,1119
1952,1134
1953,1111
1954,1168
1955,1167
1956,1109
1957,1122
1958,1179
1959,1120
1960,1114
1961,1138
1962,1119
1963,1119
1964,1163
1965,1154
1966,1129
1967,1166
1968,1163
1969,1148
1970,1200
1971,1296
1972,1360
1973,1388
1974,1323
1975,1295
1976,1328
1977,1274
1978,1262
1979,1232
1980,1255
1981,1182
1982,1205
1983,1203
1984,1154
1985,1159
1986,1163
1987,1157
1988,1150
1989,1151
1990,1145
1991,1165
1992,1156
1993,1143
1994,1145
1995,1194
1996,1153
1997,1132
1998,1187
1999,1138
2000,1233
2001,1153
2002,1173
2003,1210
2004,1264
2005,1296
2006,1222
2007,1310
2008,1293
2009,1338
2010,1313
2011,1280
2012,1254
2013,1237
2014,1215
2015,1186
2016,1216
2017,1175
2018,1147
2019,1179
2020,1121
2021,1190
2022,1165
2023,1151
2024,1151
2025,1183
2026,1168
2027,1193
2028,1141
2029,1201
2030,1209
2031,1158
2032,1159
2033,1194
2034,1100
2035,1190
2036,1226
2037,1237
2038,1188
2039,1331
2040,1338
2041,1344
2042,1315
2043,1282
2044,1255
2045,1248
2046,1216
2047,1205
2048,1174
2049,1166
2050,1178
2051,1170
2052,1151
2053,1200
2054,1200
2055,1165
2056,1155
2057,1200
2058,1152
2059,1226
2060,1206
2061,1152
2062,1253
2063,1175
2064,1232
2065,1201
2066,1217
2067,1235
2068,1265
2069,1273
2070,1321
2071,1385
2072,1483
2073,1377
2074,1353
2075,1322
2076,1210
2077,1253
2078,1233
2079,1159
2080,1166
2081,1200
2082,1200
2083,1207
2084,1232
2085,1225
2086,1223
2087,1220
2088,1275
2089,1203
2090,1211
2091,1204
2092,1199
2093,1206
2094,1179
2095,1205
2096,1190
2097,1206
2098,1206
2099,1212
2100,1251
2101,1296
2102,1251
2103,1359
2104,1343
2105,1457
2106,1434
2107,1407
2108,1347
2109,1293
2110,1264
2111,1373
2112,1200
2113,1191
2114,1197
2115,1195
2116,1202
2117,1229
2118,1245
2119,1247
2120,1279
2121,1218
2122,1223
2123,1239
2124,1231
2125,1264
2126,1220
2127,1251
2128,1201
2129,1236
2130,1219
2131,1186
2132,1241
2133,1246
2134,1239
2135,1317
2136,1344
2137,1439
2138,1439
2139,1488
2140,1447
2141,1367
2142,1341
2143,1298
2144,1233
2145,1225
2146,1205
2147,1193
2148,1209
2149,1216
2150,1254
2151,1262
2152,1252
2153,1279
2154,1277
2155,1217
2156,1261
2157,1255
2158,1225
2159,1225
2160,1221
2161,1290
2162,1222
2163,1233
2164,1283
2165,1297
2166,1328
2167,1366
2168,1328
2169,1446
2170,1456
2171,1430
2172,1367
2173,1291
2174,1264
2175,1215
2176,1183
2177,1154
2178,1184
2179,1232
2180,1208
2181,1233
2182,1293
2183,1279
2184,1345
2185,1318
2186,1250
2187,1232
2188,1235
2189,1228
2190,1201
2191,1212
2192,1235
2193,1213
2194,1247
2195,1221
2196,1273
2197,1309
2198,1296
2199,1439
2200,1312
2201,1327
2202,1242
2203,1252
2204,1171
2205,1137
2206,1147
2207,1040
2208,1195
2209,1136
2210,1215
2211,1209
2212,1238
2213,1180
2214,1181
2215,1189
2216,1201
2217,1201
2218,1200
2219,1125
2220,1158
2221,1191
2222,1181
2223,1209
2224,1232
2225,1249
2226,1280
2227,1233
2228,1373
2229,1402
2230,1372
2231,1333
2232,1259
2233,1215
2234,1168
2235,1263
2236,1133
2237,1114
2238,1121
2239,1155
2240,1182
2241,1195
2242,1206
2243,1326
2244,1227
2245,1200
2246,1198
2247,1210
2248,1214
2249,1200
2250,1135
2251,1191
2252,1189
2253,1232
2254,1199
2255,1221
2256,1232
2257,1279
2258,1270
2259,1354
2260,1360
2261,1389
2262,1331
2263,1286
2264,1233
2265,1206
2266,1170
2267,1151
2268,1155
2269,1171
2270,1216
2271,1200
2272,1200
2273,1187
2274,1232
2275,1209
2276,1218
2277,1218
2278,1219
2279,1218
2280,1186
2281,1200
2282,1182
2283,1210
2284,1152
2285,1213
2286,1206
2287,1243
2288,1233
2289,1273
2290,1301
2291,1332
2292,1375
2293,1367
2294,1332
2295,1295
2296,1264
2297,1241
2298,1231
2299,1226
2300,1217
2301,1185
2302,1179
2303,1202
2304,1186
2305,1222
2306,1223
2307,1184
2308,1221
2309,1231
2310,1208
2311,1232
2312,1221
2313,1237
2314,1214
2315,1244
2316,1232
2317,1229
2318,1259
2319,1282
2320,1306
2321,1376
2322,1351
2323,1348
2324,1314
2325,1278
2326,1255
2327,1227
2328,1206
2329,1200
2330,1169
2331,1209
2332,1190
2333,1191
2334,1202
2335,1203
2336,1184
2337,1228
2338,1213
2339,1211
2340,1161
2341,1210
2342,1170
2343,1149
2344,1172
2345,1225
2346,1174
2347,1202
2348,1230
2349,1273
2350,1286
2351,1370
2352,1328
2353,1345
2354,1308
2355,1303
2356,1271
2357,1251
2358,1232
2359,1205
2360,1200
2361,1200
2362,1203
2363,1168
2364,1168
2365,1207
2366,1207
2367,1174
2368,1162
2369,1168
2370,1175
2371,1191
2372,1201
2373,1166
2374,1216
2375,1179
2376,1179
2377,1216
2378,1197
2379,1201
2380,1250
2381,1292
2382,1302
2383,1327
2384,1322
2385,1358
2386,1309
2387,1265
2388,1264
2389,1237
2390,1191
2391,1203
2392,1174
2393,1168
2394,1213
2395,1172
2396,1168
2397,1170
2398,1217
2399,1169
2400,1211
2401,1210
2402,1181
2403,1202
2404,1168
2405,1190
2406,1158
2407,1195
2408,1190
2409,1168
2410,1169
2411,1173
2412,1186
2413,1232
2414,1221
2415,1239
2416,1301
2417,1318
2418,1333
2419,1328
2420,1306
2421,1319
2422,1305
2423,1289
2424,1252
2425,1229
2426,1200
2427,1185
2428,1170
2429,1195
2430,1186
2431,1212
2432,1189
2433,1172
2434,1183
2435,1168
2436,1167
2437,1169
2438,1193
2439,1178
2440,1207
2441,1200
2442,1170
2443,1186
2444,1188
2445,1189
2446,1186
2447,1250
2448,1243
2449,1232
2450,1222
2451,1264
2452,1259
2453,1264
2454,1325
2455,1327
2456,1359
2457,1363
2458,1366
2459,1345
2460,1316
2461,1319
2462,1263
2463,1202
2464,1235
2465,1200
2466,1168
2467,1200
2468,1225
2469,1248
2470,1229
2471,1281
2472,1264
2473,1296
2474,1247
2475,1259
2476,1226
2477,1207
2478,1219
2479,1253
2480,1278
2481,1248
2482,1227
2483,1266
2484,1252
2485,1264
2486,1235
2487,1267
2488,1266
2489,1332
2490,1392
2491,1413
2492,1439
2493,1394
2494,1407
2495,1383
2496,1328
2497,1305
2498,1289
2499,1282
2500,1249
2501,1246
2502,1257
2503,1255
2504,1260
2505,1279
2506,1295
2507,1312
2508,1310
2509,1264
2510,1286
2511,1238
2512,1255
2513,1227
2514,1254
2515,1247
2516,1277
2517,1302
2518,1279
2519,1291
2520,1311
2521,1312
2522,1315
2523,1355
2524,1404
2525,1489
2526,1495
2527,1488
2528,1459
2529,1418
2530,1391
2531,1335
2532,1307
2533,1296
2534,1253
2535,1274
2536,1253
2537,1270
2538,1294
2539,1293
2540,1301
2541,1332
2542,1425
2543,1332
2544,1306
2545,1317
2546,1312
2547,1317
2548,1331
2549,1324
2550,1328
2551,1339
2552,1326
2553,1334
2554,1366
2555,1403
2556,1476
2557,1535
2558,1522
2559,1535
2560,1519
2561,1493
2562,1458
2563,1409
2564,1355
2565,1328
2566,1268
2567,1295
2568,1310
2569,1184
2570,1342
2571,1365
2572,1371
2573,1375
2574,1394
2575,1361
2576,1361
2577,1346
2578,1319
2579,1335
2580,1325
2581,1318
2582,1315
2583,1346
2584,1312
2585,1325
2586,1359
2587,1399
2588,1437
2589,1506
2590,1573
2591,1553
2592,1519
2593,1459
2594,1410
2595,1361
2596,1328
2597,1293
2598,1264
2599,1259
2600,1277
2601,1273
2602,1288
2603,1295
2604,1316
2605,1312
2606,1317
2607,1334
2608,1322
2609,1296
2610,1286
2611,1296
2612,1294
2613,1303
2614,1312
2615,1313
2616,1293
2617,1370
2618,1383
2619,1329
2620,1376
2621,1447
2622,1491
2623,1494
2624,1473
2625,1447
2626,1400
2627,1335
2628,1335
2629,1264
2630,1243
2631,1200
2632,1218
2633,1232
2634,1256
2635,1245
2636,1244
2637,1278
2638,1254
2639,1242
2640,1237
2641,1243
2642,1223
2643,1233
2644,1246
2645,1253
2646,1234
2647,1234
2648,1232
2649,1259
2650,1257
2651,1268
2652,1284
2653,1359
2654,1424
2655,1456
2656,1501
2657,1453
2658,1425
2659,1343
2660,1322
2661,1315
2662,1275
2663,1261
2664,1263
2665,1236
2666,1276
2667,1289
2668,1281
2669,1312
2670,1290
2671,1289
2672,1154
2673,1277
2674,1286
2675,1261
2676,1262
2677,1276
2678,1259
2679,1248
2680,1286
2681,1302
2682,1287
2683,1302
2684,1308
2685,1385
2686,1397
2687,1431
2688,1418
2689,1438
2690,1343
2691,1287
2692,1241
2693,1221
2694,1218
2695,1200
2696,1234
2697,1171
2698,1175
2699,1210
2700,1043
2701,1215
2702,1255
2703,1209
2704,1209
2705,1216
2706,1218
2707,1209
2708,1238
2709,1227
2710,1232
2711,1238
2712,1245
2713,1232
2714,1258
2715,1254
2716,1255
2717,1225
2718,1279
2719,1296
2720,1313
2721,1411
2722,1439
2723,1426
2724,1438
2725,1426
2726,1421
2727,1350
2728,1326
2729,1281
2730,1265
2731,1248
2732,1072
2733,1236
2734,1251
2735,1247
2736,1280
2737,1271
2738,1289
2739,1329
2740,1251
2741,1271
2742,1262
2743,1245
2744,1264
2745,1251
2746,1261
2747,1263
2748,1254
2749,1293
2750,1274
2751,1274
2752,1289
2753,1279
2754,1281
2755,1299
2756,1330
2757,1394
2758,1431
2759,1444
2760,1419
2761,1393
2762,1342
2763,1310
2764,1274
2765,1255
2766,1239
2767,1232
2768,1231
2769,1242
2770,1260
2771,1266
2772,1271
2773,1287
2774,1282
2775,1263
2776,1285
2777,1265
2778,1269
2779,1275
2780,1287
2781,1279
2782,1281
2783,1280
2784,1284
2785,1299
2786,1295
2787,1309
2788,1301
2789,1308
2790,1308
2791,1302
2792,1317
2793,1328
2794,1361
2795,1424
2796,1472
2797,1488
2798,1462
2799,1424
2800,1385
2801,1344
2802,1318
2803,1302
2804,1296
2805,1257
2806,1248
2807,1274
2808,1269
2809,1285
2810,1289
2811,1296
2812,1293
2813,1282
2814,1292
2815,1273
2816,1279
2817,1302
2818,1269
2819,1265
2820,1277
2821,1296
2822,1280
2823,1296
2824,1309
2825,1323
2826,1309
2827,1306
2828,1317
2829,1323
2830,1328
2831,1347
2832,1409
2833,1456
2834,1489
2835,1488
2836,1456
2837,1424
2838,1380
2839,1351
2840,1341
2841,1317
2842,1279
2843,1298
2844,1278
2845,1255
2846,1267
2847,1270
2848,1266
2849,1277
2850,1266
2851,1255
2852,1254
2853,1239
2854,1239
2855,1245
2856,1251
2857,1245
2858,1232
2859,1247
2860,1246
2861,1264
2862,1260
2863,1265
2864,1268
2865,1262
2866,1282
2867,1277
2868,1272
2869,1293
2870,1316
2871,1347
2872,1437
2873,1459
2874,1461
2875,1428
2876,1378
2877,1355
2878,1371
2879,1297
2880,1312
2881,1284
2882,1227
2883,1198
2884,1219
2885,1238
2886,1215
2887,1175
2888,1169
2889,1151
2890,1174
2891,1202
2892,1168
2893,1182
2894,1133
2895,1129
2896,1168
2897,1136
2898,1133
2899,1125
2900,1141
2901,1124
2902,1141
2903,1151
2904,1184
2905,1119
2906,1136
2907,1137
2908,1175
2909,1248
2910,1277
2911,1296
2912,1247
2913,1301
2914,1265
2915,1221
2916,1200
2917,1213
2918,1214
2919,1154
2920,1152
2921,1120
2922,1168
2923,1116
2924,1127
2925,1115
2926,1125
2927,1126
2928,1158
2929,1126
2930,1135
2931,1099
2932,1123
2933,1115
2934,1127
2935,1102
2936,1134
2937,1101
2938,1136
2939,1086
2940,1109
2941,1115
2942,1117
2943,1117
2944,1135
2945,1191
2946,1251
2947,1296
2948,1275
2949,1246
2950,1234
2951,1211
2952,1239
2953,1217
2954,1191
2955,1157
2956,1168
2957,1179
2958,1173
2959,1102
2960,1163
2961,1229
2962,1147
2963,1173
2964,1139
2965,1182
2966,1106
2967,1138
2968,1137
2969,1108
2970,1159
2971,1127
2972,1167
2973,1149
2974,1131
2975,1141
2976,1163
2977,1174
2978,1152
2979,1173
2980,1151
2981,1169
2982,1181
2983,1232
2984,1263
2985,1289
2986,1288
2987,1285
2988,1233
2989,1227
2990,1190
2991,1121
2992,1163
2993,1174
2994,1142
2995,1163
2996,1099
2997,1201
2998,1171
2999,1189
3000,1194
3001,1186
3002,1168
3003,1174
3004,1133
3005,1120
3006,1136
3007,1135
3008,1137
3009,1183
3010,1162
3011,1147
3012,1146
3013,1149
3014,1202
3015,1187
3016,1217
3017,1297
3018,1264
3019,1264
3020,1275
3021,1235
3022,1222
3023,1203
3024,1174
3025,1138
3026,1182
3027,1164
3028,1132
3029,1157
3030,1171
3031,1183
3032,1199
3033,1197
3034,1135
3035,1179
3036,1163
3037,1207
3038,1126
3039,1167
3040,1168
3041,1174
3042,1195
3043,1166
3044,1158
3045,1166
3046,1108
3047,1175
3048,1159
3049,1248
3050,1296
3051,1296
3052,1285
3053,1270
3054,1237
3055,1225
3056,1211
3057,1173
3058,1151
3059,1195
3060,1168
3061,1168
3062,1167
3063,1121
3064,1150
3065,1134
3066,1040
3067,1109
3068,1136
3069,1145
3070,1136
3071,1156
3072,1154
3073,1167
3074,1121
3075,1123
3076,1153
3077,1137
3078,1168
3079,1135
3080,1185
3081,1197
3082,1189
3083,1218
3084,1263
3085,1250
3086,1280
3087,1264
3088,1283
3089,1214
3090,1198
3091,1200
3092,1174
3093,1062
3094,1107
3095,1113
3096,1131
3097,1118
3098,1099
3099,1139
3100,1113
3101,1123
3102,1106
3103,1136
3104,1138
3105,1136
3106,1142
3107,1134
3108,1175
3109,1137
3110,1089
3111,1136
3112,1119
3113,1133
3114,1147
3115,1191
3116,1285
3117,1246
3118,1236
3119,1159
3120,1213
3121,1238
3122,1186
3123,1178
3124,1124
3125,1108
3126,1136
3127,1094
3128,1118
3129,1118
3130,1081
3131,1181
3132,1103
3133,1149
3134,1130
3135,1135
3136,1053
3137,1120
3138,1136
3139,1120
3140,1086
3141,1187
3142,1166
3143,1127
3144,1093
3145,1147
3146,1120
3147,1137
3148,1168
3149,1184
3150,1175
3151,1136
3152,1196
3153,1163
3154,1162
3155,1175
3156,1085
3157,1200
3158,1135
3159,1106
3160,1179
3161,1081
3162,1524
3163,1171
3164,1130
3165,1147
3166,1131
3167,1136
3168,1106
3169,1113
3170,1131
3171,1101
3172,1094
3173,1123
3174,1104
3175,1127
3176,1223
3177,1155
3178,1163
3179,1108
3180,1282
3181,1216
3182,1331
3183,1213
3184,1078
3185,1170
3186,1071
3187,1082
3188,1078
3189,1104
3190,1091
3191,1123
3192,1137
3193,1049
3194,1151
3195,1142
3196,1123
3197,1145
3198,1136
3199,1184
3200,1136
3201,1131
3202,1207
3203,1137
3204,1136
3205,1217
3206,1143
3207,1158
3208,1177
3209,1185
3210,1181
3211,1183
3212,1200
3213,1186
3214,1056
3215,1262
3216,1258
3217,1286
3218,1258
3219,1233
3220,1184
3221,1164
3222,1161
3223,1167
3224,1171
3225,1152
3226,1199
3227,1153
3228,1122
3229,1156
3230,1146
3231,1163
3232,1149
3233,1159
3234,1162
3235,1177
3236,1130
3237,1127
3238,1168
3239,1137
3240,1088
3241,1136
3242,1185
3243,1181
3244,1159
3245,1175
3246,1157
3247,1163
3248,1185
3249,1223
3250,1227
3251,1263
3252,1271
3253,1248
3254,1226
3255,1210
3256,1188
3257,1189
3258,1169
3259,1126
3260,1151
3261,1149
3262,1135
3263,1154
3264,1184
3265,1173
3266,1169
3267,1175
3268,1179
3269,1152
3270,1182
3271,1173
3272,1178
3273,1167
3274,1111
3275,1157
3276,1181
3277,1189
3278,1168
3279,1179
3280,1169
3281,1207
3282,1216
3283,1309
3284,1258
3285,1295
3286,1277
3287,1215
3288,1247
3289,1229
3290,1213
3291,1198
3292,1189
3293,1115
3294,1169
3295,1151
3296,1127
3297,1136
3298,1135
3299,1117
3300,1113
3301,1155
3302,1105
3303,1119
3304,1104
3305,1150
3306,1120
3307,1104
3308,1131
3309,1111
3310,1120
3311,1117
3312,1113
3313,1186
3314,1219
3315,1237
3316,1237
3317,1294
3318,1232
3319,1220
3320,1183
3321,1188
3322,1167
3323,1190
3324,1163
3325,1168
3326,1105
3327,1118
3328,1149
3329,1149
3330,1130
3331,1171
3332,1174
3333,1142
3334,1151
3335,1143
3336,1122
3337,1130
3338,1122
3339,1137
3340,1165
3341,1178
3342,1171
3343,1175
3344,1142
3345,1153
3346,1186
3347,1218
3348,1263
3349,1264
3350,1293
3351,1296
3352,1268
3353,1269
3354,1250
3355,1239
3356,1234
3357,1204
3358,1136
3359,1164
3360,1129
3361,1138
3362,1197
3363,1200
3364,1161
3365,1144
3366,1136
3367,1136
3368,1131
3369,1136
3370,1159
3371,1175
3372,1149
3373,1155
3374,1140
3375,1177
3376,1218
3377,1203
3378,1174
3379,1214
3380,1209
3381,1250
3382,1280
3383,1306
3384,1306
3385,1310
3386,1279
3387,1247
3388,1231
3389,1252
3390,1206
3391,1195
3392,1136
3393,1136
3394,1145
3395,1182
3396,1205
3397,1199
3398,1213
3399,1154
3400,1179
3401,1190
3402,1161
3403,1161
3404,1143
3405,1149
3406,1162
3407,1187
3408,1143
3409,1161
3410,1158
3411,1201
3412,1204
3413,1243
3414,1271
3415,1312
3416,1273
3417,1314
3418,1261
3419,1222
3420,1202
3421,1191
3422,1198
3423,1153
3424,1137
3425,1126
3426,1180
3427,1191
3428,1187
3429,1136
3430,1180
3431,1174
3432,1126
3433,1144
3434,1168
3435,1120
3436,1163
3437,1134
3438,1117
3439,1133
3440,1143
3441,1142
3442,1142
3443,1178
3444,1232
3445,1251
3446,1254
3447,1302
3448,1314
3449,1282
3450,1262
3451,1222
3452,1178
3453,1143
3454,1158
3455,1104
3456,1119
3457,1117
3458,1142
3459,1118
3460,1132
3461,1121
3462,1126
3463,1151
3464,1138
3465,1143
3466,1104
3467,1109
3468,1092
3469,1135
3470,1126
3471,1139
3472,1150
3473,1159
3474,1159
3475,1207
3476,1295
3477,1269
3478,1312
3479,1302
3480,1269
3481,1249
3482,1211
3483,1188
3484,1177
3485,1167
3486,1137
3487,1157
3488,1151
3489,1176
3490,1187
3491,1186
3492,1161
3493,1183
3494,1198
3495,1183
3496,1186
3497,1197
3498,1136
3499,1190
3500,1214
3501,1053
3502,1219
3503,1200
3504,1203
3505,1119
3506,1232
3507,1271
3508,1317
3509,1392
3510,1378
3511,1355
3512,1358
3513,1331
3514,1272
3515,1271
3516,1224
3517,1232
3518,1194
3519,1223
3520,1195
3521,1215
3522,1232
3523,1239
3524,1243
3525,1269
3526,1278
3527,1244
3528,1232
3529,1257
3530,1274
3531,1293
3532,1271
3533,1276
3534,1285
3535,1276
3536,1278
3537,1297
3538,1300
3539,1299
3540,1410
3541,1347
3542,1436
3543,1495
3544,1481
3545,1462
3546,1392
3547,1377
3548,1330
3549,1315
3550,1256
3551,1265
3552,1297
3553,1271
3554,1303
3555,1298
3556,1314
3557,1332
3558,1333
3559,1340
3560,1328
3561,1327
3562,1316
3563,1306
3564,1321
3565,1343
3566,1397
3567,1318
3568,1335
3569,1326
3570,1338
3571,1367
3572,1406
3573,1459
3574,1508
3575,1522
3576,1489
3577,1483
3578,1441
3579,1409
3580,1378
3581,1353
3582,1371
3583,1310
3584,1296
3585,1319
3586,1376
3587,1347
3588,1362
3589,1382
3590,1374
3591,1366
3592,1357
3593,1372
3594,1338
3595,1294
3596,1279
3597,1264
3598,1253
3599,1222
3600,1214
3601,1234
3602,1244
3603,1295
3604,1331
3605,1395
3606,1415
3607,1392
3608,1386
3609,1347
3610,1327
3611,1264
3612,1265
3613,1262
3614,1245
3615,1233
3616,1291
3617,1264
3618,1266
3619,1296
3620,1341
3621,1323
3622,1319
3623,1296
3624,1296
3625,1288
3626,1167
3627,1318
3628,1296
3629,1298
3630,1342
3631,1292
3632,1273
3633,1292
3634,1329
3635,1413
3636,1453
3637,1479
3638,1489
3639,1414
3640,1435
3641,1382
3642,1338
3643,1274
3644,1261
3645,1296
3646,1243
3647,1251
3648,1328
3649,1264
3650,1301
3651,1282
3652,1309
3653,1344
3654,1280
3655,1325
3656,1469
3657,1264
3658,1269
3659,1273
3660,1264
3661,1267
3662,1278
3663,1278
3664,1238
3665,1295
3666,1328
3667,1393
3668,1247
3669,1428
3670,1392
3671,1411
3672,1410
3673,1339
3674,1302
3675,1295
3676,1258
3677,1232
3678,1200
3679,1216
3680,1248
3681,1208
3682,1266
3683,1303
3684,1287
3685,1279
3686,1274
3687,1243
3688,1257
3689,1263
3690,1305
3691,1239
3692,1217
3693,1209
3694,1258
3695,1242
3696,1234
3697,1254
3698,1290
3699,1328
3700,1360
3701,1442
3702,1394
3703,1393
3704,1365
3705,1313
3706,1279
3707,1232
3708,1239
3709,1187
3710,1199
3711,1200
3712,1219
3713,1252
3714,1245
3715,1319
3716,1253
3717,1249
3718,1238
3719,1206
3720,995
3721,1230
3722,1235
3723,1216
3724,1232
3725,1230
3726,1239
3727,1227
3728,1233
3729,1248
3730,1245
3731,1294
3732,1343
3733,1364
3734,1387
3735,1355
3736,1344
3737,1303
3738,1270
3739,1239
3740,1200
3741,1201
3742,1188
3743,1184
3744,1185
3745,1205
3746,1220
3747,1229
3748,1225
3749,1223
3750,1216
3751,1201
3752,1198
3753,1206
3754,1185
3755,1194
3756,1186
3757,1184
3758,1181
3759,1204
3760,1216
3761,1246
3762,1276
3763,1328
3764,1347
3765,1346
3766,1327
3767,1279
3768,1262
3769,1232
3770,1230
3771,1205
3772,1212
3773,1158
3774,1187
3775,1173
3776,1169
3777,1205
3778,1184
3779,1195
3780,1178
3781,1180
3782,1163
3783,1166
3784,1170
3785,1170
3786,1182
3787,1157
3788,1157
3789,1167
3790,1210
3791,1230
3792,1223
3793,1283
3794,1360
3795,1392
3796,1418
3797,1390
3798,1375
3799,1328
3800,1284
3801,1265
3802,1243
3803,1217
3804,1216
3805,1203
3806,1206
3807,1211
3808,1236
3809,1241
3810,1253
3811,1239
3812,1246
3813,1250
3814,1263
3815,1253
3816,1241
3817,1232
3818,1243
3819,1232
3820,1263
3821,1266
3822,1265
3823,1275
3824,1253
3825,1262
3826,1286
3827,1326
3828,1371
3829,1427
3830,1422
3831,1387
3832,1311
3833,1322
3834,1238
3835,1287
3836,1266
3837,1207
3838,1210
3839,1205
3840,1200
3841,1152
3842,1140
3843,1135
3844,1153
3845,1149
3846,1169
3847,1164
3848,1179
3849,1135
3850,1143
3851,1131
3852,1149
3853,1155
3854,1157
3855,1139
3856,1134
3857,1134
3858,1107
3859,1137
3860,1143
3861,1141
3862,1143
3863,1143
3864,1200
3865,1236
3866,1285
3867,1264
3868,1263
3869,1247
3870,1227
3871,1244
3872,1216
3873,1192
3874,1166
3875,1169
3876,1168
3877,1154
3878,1143
3879,1145
3880,1153
3881,1138
3882,1167
3883,1146
3884,1151
3885,1122
3886,1127
3887,1143
3888,1125
3889,1131
3890,1129
3891,1129
3892,1135
3893,1152
3894,1155
3895,1136
3896,1158
3897,1152
3898,1197
3899,1258
3900,1286
3901,1311
3902,1303
3903,1262
3904,1304
3905,1264
3906,1252
3907,1210
3908,1189
3909,1175
3910,1165
3911,1205
3912,1168
3913,1147
3914,1162
3915,1155
3916,1159
3917,1185
3918,1173
3919,1155
3920,1155
3921,1159
3922,1142
3923,1154
3924,1150
3925,1155
3926,1139
3927,1146
3928,1142
3929,1179
3930,1168
3931,1169
3932,1239
3933,1278
3934,1290
3935,1287
3936,1294
3937,1284
3938,1257
3939,1273
3940,1233
3941,1205
3942,1187
3943,1194
3944,1167
3945,1152
3946,1158
3947,1163
3948,1195
3949,1166
3950,1204
3951,1168
3952,1197
3953,1168
3954,1168
3955,1161
3956,1188
3957,1184
3958,1195
3959,1168
3960,1164
3961,1186
3962,1187
3963,1191
3964,1174
3965,1207
3966,1264
3967,1351
3968,1365
3969,1373
3970,1333
3971,1328
3972,1389
3973,1287
3974,1275
3975,1267
3976,1220
3977,1207
3978,1199
3979,1232
3980,1166
3981,1234
3982,1190
3983,1181
3984,1239
3985,1267
3986,1246
3987,1226
3988,1258
3989,1253
3990,1174
3991,1226
3992,1181
3993,1247
3994,1267
3995,1232
3996,1241
3997,1235
3998,1276
3999,1181
4000,1296
4001,1277
4002,1328
4003,1335
4004,1403
4005,1333
4006,1315
4007,1276
4008,1277
4009,1215
4010,1178
4011,1213
4012,1219
4013,1216
4014,1239
4015,1264
4016,1228
4017,1245
4018,1259
4019,1232
4020,1245
4021,1238
4022,1217
4023,1234
4024,1211
4025,1181
4026,1177
4027,1200
4028,1227
4029,1238
4030,1230
4031,1253
4032,1312
4033,1261
4034,1358
4035,1354
4036,1347
4037,1403
4038,1287
4039,1279
4040,1261
4041,1209
4042,1233
4043,1168
4044,1178
4045,1191
4046,1186
4047,1227
4048,1247
4049,1231
4050,1190
4051,1214
4052,1195
4053,1223
4054,1201
4055,1232
4056,1158
4057,1217
4058,1193
4059,1227
4060,1202
4061,1283
4062,1265
4063,1312
4064,1351
4065,1314
4066,1330
4067,1317
4068,1273
4069,1237
4070,1187
4071,1191
4072,1173
4073,1168
4074,1136
4075,1142
4076,1187
4077,1226
4078,1242
4079,1227
4080,1233
4081,1214
4082,1199
4083,1230
4084,1232
4085,1161
4086,1205
4087,1218
4088,1199
4089,1243
4090,1235
4091,1295
4092,1308
4093,1350
4094,1431
4095,1387
4096,1313
4097,1277
4098,1239
4099,1201
4100,1236
4101,1169
4102,1155
4103,1195
4104,1169
4105,1182
4106,1136
4107,1152
4108,1257
4109,1228
4110,1218
4111,1205
4112,1243
4113,1228
4114,1200
4115,1189
4116,1188
4117,1251
4118,1185
4119,1243
4120,1285
4121,1341
4122,1241
4123,1387
4124,1346
4125,1322
4126,1280
4127,1249
4128,1211
4129,1150
4130,1177
4131,1114
4132,1152
4133,1175
4134,1172
4135,1200
4136,1223
4137,1171
4138,1221
4139,1204
4140,1180
4141,1209
4142,1185
4143,1201
4144,1182
4145,1211
4146,1174
4147,1189
4148,1230
4149,1264
4150,1319
4151,1356
4152,1333
4153,1386
4154,1339
4155,1352
4156,1311
4157,1298
4158,1332
4159,1285
4160,1280
4161,1217
4162,1209
4163,1264
4164,1222
4165,1248
4166,1251
4167,1171
4168,1235
4169,1185
4170,1169
4171,1203
4172,1191
4173,1233
4174,1153
4175,1167
4176,1235
4177,1168
4178,1210
4179,1188
4180,1207
4181,1253
4182,1260
4183,1277
4184,1237
4185,1284
4186,1253
4187,1226
4188,1183
4189,1203
4190,1104
4191,1157
4192,1195
4193,1152
4194,1142
4195,1151
4196,1154
4197,1227
4198,1156
4199,1174
4200,1158
4201,1191
4202,1182
4203,1199
4204,1154
4205,1136
4206,1166
4207,1168
4208,1147
4209,1168
4210,1202
4211,1225
4212,1237
4213,1274
4214,1268
4215,1239
4216,1197
4217,1223
4218,1198
4219,1178
4220,1216
4221,1232
4222,1169
4223,1136
4224,1168
4225,1168
4226,1134
4227,1152
4228,1159
4229,1183
4230,1139
4231,1149
4232,1137
4233,1138
4234,1136
4235,1143
4236,1167
4237,1148
4238,1169
4239,1216
4240,1263
4241,1264
4242,1266
4243,1251
4244,1254
4245,1264
4246,1198
4247,1211
4248,1229
4249,1199
4250,1152
4251,1147
4252,1150
4253,1150
4254,1153
4255,1152
4256,1163
4257,1167
4258,1151
4259,1141
4260,1138
4261,1138
4262,1156
4263,1175
4264,1139
4265,1147
4266,1177
4267,1230
4268,1267
4269,1303
4270,1293
4271,1264
4272,1279
4273,1251
4274,1283
4275,1213
4276,1203
4277,1193
4278,1153
4279,1200
4280,1138
4281,1152
4282,1150
4283,1144
4284,1165
4285,1166
4286,1168
4287,1189
4288,1154
4289,1171
4290,1154
4291,1190
4292,1192
4293,1152
4294,1161
4295,1152
4296,1211
4297,1255
4298,1301
4299,1330
4300,1312
4301,1286
4302,1281
4303,1309
4304,1268
4305,1231
4306,1242
4307,1199
4308,1179
4309,1163
4310,1180
4311,1190
4312,1168
4313,1168
4314,1171
4315,1158
4316,1175
4317,1171
4318,1174
4319,1172
4320,1175
4321,1175
4322,1195
4323,1181
4324,1171
4325,1199
4326,1233
4327,1274
4328,1308
4329,1321
4330,1310
4331,1281
4332,1274
4333,1267
4334,1264
4335,1291
4336,1249
4337,1207
4338,1220
4339,1223
4340,1206
4341,1199
4342,1244
4343,1199
4344,1194
4345,1205
4346,1210
4347,1206
4348,1214
4349,1232
4350,1214
4351,1213
4352,1237
4353,1236
4354,1282
4355,1290
4356,1326
4357,1347
4358,1345
4359,1335
4360,1324
4361,1321
4362,1311
4363,1312
4364,1319
4365,1302
4366,1279
4367,1300
4368,1283
4369,1291
4370,1296
4371,1296
4372,1302
4373,1296
4374,1286
4375,1307
4376,1306
4377,1309
4378,1311
4379,1298
4380,1306
4381,1331
4382,1334
4383,1349
4384,1361
4385,1367
4386,1387
4387,1397
4388,1378
4389,1371
4390,1383
4391,1360
4392,1360
4393,1354
4394,1354
4395,1356
4396,1364
4397,1367
4398,1358
4399,1351
4400,1379
4401,1377
4402,1381
4403,1393
4404,1394
4405,1397
4406,1413
4407,1417
4408,1431
4409,1425
4410,1424
4411,1461
4412,1468
4413,1462
4414,1441
4415,1488
4416,1459
4417,1527
4418,1476
4419,1494
4420,1517
4421,1506
4422,1521
4423,1511
4424,1520
4425,1521
4426,1523
4427,1534
4428,1535
4429,1534
4430,1535
4431,1562
4432,1561
4433,1563
4434,1573
4435,1562
4436,1579
4437,1586
4438,1586
4439,1600
4440,1618
4441,1624
4442,1614
4443,1631
4444,1621
4445,1622
4446,1623
4447,1606
4448,1632
4449,1635
4450,1653
4451,1674
4452,1616
4453,1627
4454,1639
4455,1655
4456,1648
4457,1643
4458,1677
4459,1674
4460,1673
4461,1703
4462,1683
4463,1693
4464,1726
4465,1712
4466,1739
4467,1714
4468,1756
4469,1737
4470,1776
4471,1775
4472,1770
4473,1791
4474,1744
4475,1776
4476,1773
4477,1747
4478,1788
4479,1741
4480,1756
4481,1769
4482,1790
4483,1777
4484,1798
4485,1831
4486,1792
4487,1807
4488,1808
4489,1867
4490,1792
4491,1754
4492,1807
4493,1815
4494,1826
4495,1840
4496,1824
4497,1840
4498,1800
4499,1877
4500,1904
4501,1840
4502,1898
4503,1830
4504,1833
4505,1840
4506,1842
4507,1856
4508,1856
4509,1820
4510,1871
4511,1849
4512,1888
4513,1872
4514,1861
4515,1882
4516,1878
4517,1879
4518,1927
4519,1858
4520,1853
4521,1887
4522,1936
4523,1903
4524,1913
4525,1910
4526,1990
4527,1926
4528,1882
4529,1899
4530,1905
4531,1907
4532,1909
4533,1909
4534,1913
4535,1980
4536,1921
4537,1916
4538,1901
4539,1917
4540,1993
4541,1904
4542,1907
4543,1909
4544,1886
4545,1931
4546,1904
4547,1937
4548,1911
4549,1935
4550,1936
4551,1932
4552,1959
4553,1968
4554,1963
4555,1959
4556,1975
4557,1955
4558,2005
4559,1937
4560,1934
4561,1904
4562,1910
4563,1963
4564,1935
4565,1914
4566,1910
4567,1949
4568,1899
4569,1866
4570,1893
4571,1889
4572,1804
4573,1814
4574,1873
4575,1857
4576,1856
4577,1887
4578,1906
4579,1920
4580,1939
4581,1936
4582,1934
4583,1906
4584,1889
4585,1849
4586,1868
4587,1879
4588,1777
4589,1815
4590,1780
4591,1636
4592,1762
4593,1795
4594,1798
4595,1728
4596,1767
4597,1768
4598,1742
4599,1749
4600,1741
4601,1732
4602,1798
4603,1687
4604,1701
4605,1712
4606,1712
4607,1740
4608,1776
4609,1786
4610,1767
4611,1755
4612,1755
4613,1721
4614,1683
4615,1669
4616,1643
4617,1630
4618,1617
4619,1617
4620,1606
4621,1612
4622,1609
4623,1610
4624,1614
4625,1611
4626,1597
4627,1574
4628,1579
4629,1566
4630,1558
4631,1555
4632,1559
4633,1583
4634,1586
4635,1613
4636,1635
4637,1641
4638,1617
4639,1614
4640,1589
4641,1575
4642,1535
4643,1527
4644,1515
4645,1507
4646,1520
4647,1494
4648,1498
4649,1492
4650,1487
4651,1514
4652,1494
4653,1479
4654,1479
4655,1488
4656,1474
4657,1486
4658,1465
4659,1477
4660,1446
4661,1483
4662,1492
4663,1533
4664,1535
4665,1558
4666,1531
4667,1533
4668,1495
4669,1506
4670,1509
4671,1477
4672,1485
4673,1457
4674,1456
4675,1471
4676,1472
4677,1465
4678,1456
4679,1459
4680,1474
4681,1478
4682,1456
4683,1461
4684,1456
4685,1451
4686,1470
4687,1443
4688,1449
4689,1450
4690,1457
4691,1470
4692,1477
4693,1489
4694,1529
4695,1525
4696,1533
4697,1535
4698,1526
4699,1514
4700,1487
4701,1474
4702,1472
4703,1457
4704,1438
4705,1461
4706,1456
4707,1468
4708,1467
4709,1456
4710,1455
4711,1458
4712,1456
4713,1423
4714,1440
4715,1437
4716,1447
4717,1445
4718,1434
4719,1461
4720,1447
4721,1424
4722,1455
4723,1445
4724,1470
4725,1483
4726,1509
4727,1520
4728,1504
4729,1500
4730,1507
4731,1483
4732,1474
4733,1439
4734,1440
4735,1429
4736,1392
4737,1394
4738,1417
4739,1411
4740,1440
4741,1407
4742,1420
4743,1392
4744,1393
4745,1403
4746,1387
4747,1389
4748,1380
4749,1373
4750,1363
4751,1362
4752,1361
4753,1369
4754,1363
4755,1383
4756,1392
4757,1389
4758,1410
4759,1427
4760,1473
4761,1483
4762,1481
4763,1467
4764,1454
4765,1451
4766,1419
4767,1408
4768,1425
4769,1377
4770,1354
4771,1408
4772,1353
4773,1335
4774,1349
4775,1342
4776,1332
4777,1323
4778,1342
4779,1329
4780,1330
4781,1315
4782,1311
4783,1328
4784,1327
4785,1334
4786,1317
4787,1360
4788,1339
4789,1347
4790,1360
4791,1376
4792,1357
4793,1334
4794,1328
4795,1337
4796,1333
4797,1409
4798,1383
4799,1410
4800,1415
4801,1488
4802,1422
4803,1334
4804,1408
4805,1295
4806,1338
4807,1351
4808,1355
4809,1345
4810,1350
4811,1344
4812,1326
4813,1333
4814,1319
4815,1330
4816,1277
4817,1323
4818,1344
4819,1303
4820,1307
4821,1291
4822,1296
4823,1311
4824,1281
4825,1298
4826,1326
4827,1329
4828,1328
4829,1328
4830,1313
4831,1341
4832,1356
4833,1389
4834,1407
4835,1410
4836,1363
4837,1393
4838,1386
4839,1351
4840,1346
4841,1330
4842,1314
4843,1311
4844,1301
4845,1328
4846,1319
4847,1356
4848,1352
4849,1325
4850,1310
4851,1311
4852,1298
4853,1295
4854,1312
4855,1223
4856,1285
4857,1282
4858,1225
4859,1251
4860,1287
4861,1314
4862,1288
4863,1362
4864,1269
4865,1215
4866,1269
4867,1247
4868,1312
4869,1285
4870,1311
4871,1322
4872,1382
4873,1351
4874,1379
4875,1399
4876,1367
4877,1344
4878,1318
4879,1330
4880,1291
4881,1327
4882,1311
4883,1270
4884,1200
4885,1309
4886,1329
4887,1330
4888,1267
4889,1274
4890,1265
4891,1260
4892,1328
4893,1260
4894,1293
4895,1265
4896,1302
4897,1259
4898,1241
4899,1314
4900,1280
4901,1294
4902,1307
4903,1315
4904,1360
4905,1353
4906,1385
4907,1388
4908,1383
4909,1381
4910,1373
4911,1388
4912,1376
4913,1349
4914,1297
4915,1296
4916,1264
4917,1313
4918,1293
4919,1313
4920,1296
4921,1327
4922,1266
4923,1341
4924,1338
4925,1335
4926,1307
4927,1382
4928,1327
4929,1303
4930,1294
4931,1284
4932,1263
4933,1322
4934,1353
4935,1309
4936,1413
4937,1374
4938,1421
4939,1440
4940,1409
4941,1392
4942,1380
4943,1382
4944,1296
4945,1371
4946,1331
4947,1346
4948,1325
4949,1338
4950,1334
4951,1323
4952,1341
4953,1334
4954,1318
4955,1296
4956,1364
4957,1298
4958,1265
4959,1279
4960,1325
4961,1328
4962,1328
4963,1324
4964,1360
4965,1349
4966,1463
4967,1395
4968,1387
4969,1409
4970,1424
4971,1454
4972,1430
4973,1451
4974,1314
4975,1438
4976,1327
4977,1325
4978,1328
4979,1091
4980,1319
4981,1294
4982,1296
4983,1299
4984,1269
4985,1293
4986,1309
4987,1298
4988,1299
4989,1309
4990,1296
4991,1296
4992,1262
4993,1280
4994,1294
4995,1311
4996,1267
4997,1287
4998,1264
4999,1258
5000,1283
5001,1286
5002,1324
5003,1360
5004,1375
5005,1430
5006,1375
5007,1378
5008,1407
5009,1322
5010,1351
5011,1328
5012,1319
5013,1263
5014,1245
5015,1259
5016,1282
5017,1287
5018,1252
5019,1275
5020,1265
5021,1295
5022,1232
5023,1250
5024,1228
5025,1237
5026,1215
5027,1237
5028,1275
5029,1263
5030,1280
5031,1255
5032,1266
5033,1270
5034,1285
5035,1249
5036,1279
5037,1305
5038,1296
5039,1359
5040,1374
5041,1375
5042,1415
5043,1394
5044,1374
5045,1401
5046,1359
5047,1383
5048,1370
5049,1296
5050,1280
5051,1279
5052,1309
5053,1278
5054,1287
5055,1267
5056,1263
5057,1310
5058,1360
5059,1289
5060,1264
5061,1277
5062,1284
5063,1249
5064,1223
5065,1307
5066,1254
5067,1286
5068,1283
5069,1333
5070,1271
5071,1338
5072,1279
5073,1273
5074,1286
5075,1307
5076,1361
5077,1375
5078,1389
5079,1392
5080,1392
5081,1392
5082,1412
5083,1346
5084,1324
5085,1317
5086,1298
5087,1302
5088,1279
5089,1268
5090,1271
5091,1282
5092,1269
5093,1273
5094,1281
5095,1319
5096,1326
5097,1328
5098,1287
5099,1275
5100,1280
5101,1330
5102,1282
5103,1296
5104,1310
5105,1296
5106,1297
5107,1331
5108,1314
5109,1331
5110,1380
5111,1392
5112,1414
5113,1430
5114,1411
5115,1392
5116,1425
5117,1395
5118,1380
5119,1377
5120,1343
5121,1300
5122,1294
5123,1325
5124,1295
5125,1303
5126,1312
5127,1296
5128,1287
5129,1296
5130,1318
5131,1300
5132,1341
5133,1328
5134,1312
5135,1297
5136,1302
5137,1316
5138,1295
5139,1301
5140,1297
5141,1317
5142,1335
5143,1390
5144,1424
5145,1428
5146,1439
5147,1472
5148,1466
5149,1419
5150,1407
5151,1335
5152,1355
5153,1355
5154,1339
5155,1360
5156,1324
5157,1309
5158,1309
5159,1303
5160,1326
5161,1360
5162,1325
5163,1324
5164,1234
5165,1296
5166,1330
5167,1311
5168,1297
5169,1318
5170,1313
5171,1297
5172,1313
5173,1327
5174,1331
5175,1379
5176,1417
5177,1451
5178,1497
5179,1518
5180,1491
5181,1472
5182,1459
5183,1443
5184,1423
5185,1394
5186,1370
5187,1365
5188,1370
5189,1360
5190,1385
5191,1364
5192,1393
5193,1381
5194,1367
5195,1377
5196,1387
5197,1369
5198,1361
5199,1354
5200,1360
5201,1373
5202,1371
5203,1367
5204,1411
5205,1391
5206,1415
5207,1409
5208,1419
5209,1469
5210,1465
5211,1477
5212,1581
5213,1629
5214,1664
5215,1653
5216,1615
5217,1562
5218,1535
5219,1506
5220,1480
5221,1456
5222,1446
5223,1489
5224,1440
5225,1451
5226,1479
5227,1485
5228,1474
5229,1479
5230,1497
5231,1470
5232,1453
5233,1456
5234,1457
5235,1460
5236,1483
5237,1465
5238,1437
5239,1505
5240,1488
5241,1499
5242,1535
5243,1515
5244,1505
5245,1527
5246,1555
5247,1604
5248,1663
5249,1702
5250,1706
5251,1695
5252,1682
5253,1627
5254,1583
5255,1557
5256,1527
5257,1520
5258,1535
5259,1511
5260,1535
5261,1504
5262,1526
5263,1466
5264,1535
5265,1503
5266,1527
5267,1520
5268,1558
5269,1511
5270,1535
5271,1535
5272,1518
5273,1535
5274,1523
5275,1535
5276,1580
5277,1532
5278,1535
5279,1574
5280,1574
5281,1612
5282,1709
5283,1701
5284,1719
5285,1707
5286,1680
5287,1657
5288,1715
5289,1613
5290,1566
5291,1566
5292,1522
5293,1520
5294,1525
5295,1535
5296,1570
5297,1618
5298,1580
5299,1607
5300,1568
5301,1564
5302,1575
5303,1535
5304,1535
5305,1503
5306,1583
5307,1535
5308,1554
5309,1585
5310,1535
5311,1594
5312,1493
5313,1601
5314,1611
5315,1669
5316,1715
5317,1731
5318,1525
5319,1655
5320,1658
5321,1617
5322,1477
5323,1535
5324,1499
5325,1520
5326,1442
5327,1474
5328,1557
5329,1599
5330,1567
5331,1568
5332,1568
5333,1566
5334,1535
5335,1527
5336,1534
5337,1521
5338,1535
5339,1523
5340,1508
5341,1557
5342,1511
5343,1553
5344,1535
5345,1566
5346,1535
5347,1597
5348,1674
5349,1714
5350,1689
5351,1700
5352,1714
5353,1626
5354,1623
5355,1590
5356,1567
5357,1534
5358,1507
5359,1490
5360,1488
5361,1501
5362,1444
5363,1504
5364,1511
5365,1513
5366,1505
5367,1487
5368,1470
5369,1478
5370,1465
5371,1477
5372,1472
5373,1433
5374,1486
5375,1456
5376,1464
5377,1466
5378,1488
5379,1487
5380,1501
5381,1517
5382,1566
5383,1618
5384,1643
5385,1665
5386,1645
5387,1602
5388,1535
5389,1502
5390,1495
5391,1447
5392,1401
5393,1392
5394,1373
5395,1361
5396,1377
5397,1392
5398,1389
5399,1392
5400,1386
5401,1389
5402,1372
5403,1365
5404,1360
5405,1365
5406,1362
5407,1341
5408,1366
5409,1365
5410,1395
5411,1370
5412,1376
5413,1407
5414,1407
5415,1396
5416,1390
5417,1406
5418,1406
5419,1434
5420,1507
5421,1535
5422,1604
5423,1594
5424,1573
5425,1524
5426,1477
5427,1439
5428,1469
5429,1415
5430,1361
5431,1369
5432,1349
5433,1345
5434,1373
5435,1354
5436,1369
5437,1375
5438,1366
5439,1358
5440,1354
5441,1338
5442,1342
5443,1339
5444,1357
5445,1343
5446,1350
5447,1339
5448,1351
5449,1377
5450,1383
5451,1373
5452,1374
5453,1389
5454,1392
5455,1394
5456,1422
5457,1487
5458,1526
5459,1535
5460,1535
5461,1500
5462,1469
5463,1456
5464,1415
5465,1414
5466,1365
5467,1393
5468,1366
5469,1325
5470,1327
5471,1335
5472,1363
5473,1370
5474,1351
5475,1348
5476,1353
5477,1350
5478,1346
5479,1355
5480,1328
5481,1327
5482,1324
5483,1349
5484,1335
5485,1344
5486,1358
5487,1345
5488,1345
5489,1358
5490,1377
5491,1415
5492,1479
5493,1514
5494,1522
5495,1521
5496,1486
5497,1456
5498,1425
5499,1450
5500,1387
5501,1395
5502,1379
5503,1353
5504,1331
5505,1304
5506,1328
5507,1340
5508,1351
5509,1347
5510,1357
5511,1335
5512,1329
5513,1339
5514,1337
5515,1315
5516,1315
5517,1344
5518,1338
5519,1342
5520,1357
5521,1343
5522,1359
5523,1351
5524,1367
5525,1380
5526,1430
5527,1482
5528,1529
5529,1479
5530,1511
5531,1504
5532,1491
5533,1501
5534,1447
5535,1447
5536,1387
5537,1326
5538,1316
5539,1312
5540,1294
5541,1377
5542,1301
5543,1316
5544,1309
5545,1363
5546,1376
5547,1361
5548,1355
5549,1307
5550,1553
5551,1346
5552,1312
5553,1247
5554,1361
5555,1296
5556,1339
5557,1339
5558,1360
5559,1309
5560,1359
5561,1312
5562,1399
5563,1373
5564,1382
5565,1441
5566,1461
5567,1520
5568,1455
5569,1463
5570,1459
5571,1439
5572,1369
5573,1446
5574,1355
5575,1341
5576,1322
5577,1371
5578,1318
5579,1314
5580,1365
5581,1319
5582,1325
5583,1312
5584,1350
5585,1323
5586,1294
5587,1298
5588,1285
5589,1294
5590,1313
5591,1374
5592,1328
5593,1234
5594,1319
5595,1339
5596,1333
5597,1329
5598,1347
5599,1360
5600,1389
5601,1410
5602,1410
5603,1442
5604,1485
5605,1441
5606,1413
5607,1374
5608,1319
5609,1323
5610,1302
5611,1271
5612,1270
5613,1283
5614,1253
5615,1297
5616,1296
5617,1303
5618,1295
5619,1291
5620,1280
5621,1285
5622,1293
5623,1290
5624,1122
5625,1292
5626,1278
5627,1278
5628,1316
5629,1285
5630,1293
5631,1281
5632,1228
5633,1332
5634,1256
5635,1348
5636,1405
5637,1392
5638,1442
5639,1411
5640,1385
5641,1319
5642,1328
5643,1298
5644,1264
5645,1262
5646,1261
5647,1264
5648,1274
5649,1280
5650,1296
5651,1296
5652,1307
5653,1317
5654,1294
5655,1279
5656,1258
5657,1293
5658,1269
5659,1360
5660,1294
5661,1315
5662,1277
5663,1275
5664,1313
5665,1259
5666,1325
5667,1331
5668,1335
5669,1325
5670,1267
5671,1457
5672,1424
5673,1345
5674,1358
5675,1321
5676,1301
5677,1253
5678,1204
5679,1233
5680,1285
5681,1296
5682,1314
5683,1306
5684,1323
5685,1305
5686,1302
5687,1328
5688,1343
5689,1275
5690,1262
5691,1276
5692,1339
5693,1299
5694,1323
5695,1238
5696,1289
5697,1283
5698,1315
5699,1104
5700,1317
5701,1329
5702,1418
5703,1379
5704,1394
5705,1451
5706,1438
5707,1407
5708,1354
5709,1383
5710,1248
5711,1284
5712,1296
5713,1246
5714,1295
5715,1287
5716,1273
5717,1245
5718,1267
5719,1270
5720,1268
5721,1315
5722,1305
5723,1281
5724,1269
5725,1251
5726,1238
5727,1255
5728,1276
5729,1296
5730,1327
5731,1315
5732,1299
5733,1296
5734,1239
5735,1295
5736,1312
5737,1334
5738,1357
5739,1413
5740,1415
5741,1412
5742,1337
5743,1373
5744,1339
5745,1293
5746,1296
5747,1292
5748,1264
5749,1264
5750,1255
5751,1280
5752,1261
5753,1265
5754,1297
5755,1295
5756,1333
5757,1294
5758,1278
5759,1261
5760,1270
5761,1266
5762,1266
5763,1251
5764,1282
5765,1296
5766,1289
5767,1275
5768,1283
5769,1307
5770,1296
5771,1354
5772,1317
5773,1361
5774,1389
5775,1441
5776,1403
5777,1408
5778,1488
5779,1414
5780,1372
5781,1376
5782,1323
5783,1327
5784,1278
5785,1311
5786,1296
5787,1266
5788,1271
5789,1294
5790,1296
5791,1341
5792,1280
5793,1313
5794,1322
5795,1339
5796,1284
5797,1306
5798,1319
5799,1298
5800,1317
5801,1294
5802,1303
5803,1296
5804,1317
5805,1335
5806,1342
5807,1299
5808,1312
5809,1351
5810,1366
5811,1391
5812,1412
5813,1367
5814,1413
5815,1394
5816,1351
5817,1337
5818,1328
5819,1264
5820,1310
5821,1263
5822,1287
5823,1279
5824,1279
5825,1297
5826,1294
5827,1322
5828,1335
5829,1308
5830,1280
5831,1265
5832,1276
5833,1328
5834,1282
5835,1285
5836,1328
5837,1330
5838,1331
5839,1303
5840,1352
5841,1354
5842,1328
5843,1346
5844,1393
5845,1413
5846,1410
5847,1445
5848,1389
5849,1433
5850,1425
5851,1392
5852,1382
5853,1349
5854,1347
5855,1325
5856,1271
5857,1287
5858,1328
5859,1296
5860,1338
5861,1352
5862,1335
5863,1318
5864,1297
5865,1298
5866,1306
5867,1312
5868,1294
5869,1309
5870,1294
5871,1290
5872,1297
5873,1312
5874,1299
5875,1317
5876,1328
5877,1328
5878,1367
5879,1419
5880,1441
5881,1434
5882,1472
5883,1412
5884,1404
5885,1427
5886,1354
5887,1370
5888,1328
5889,1296
5890,1283
5891,1315
5892,1270
5893,1311
5894,1296
5895,1322
5896,1296
5897,1360
5898,1306
5899,1315
5900,1317
5901,1294
5902,1297
5903,1313
5904,1321
5905,1317
5906,1310
5907,1359
5908,1328
5909,1360
5910,1349
5911,1366
5912,1365
5913,1396
5914,1459
5915,1505
5916,1531
5917,1533
5918,1506
5919,1488
5920,1458
5921,1410
5922,1415
5923,1399
5924,1363
5925,1374
5926,1363
5927,1242
5928,1375
5929,1363
5930,1371
5931,1378
5932,1230
5933,1364
5934,1360
5935,1363
5936,1341
5937,1413
5938,1358
5939,1374
5940,1371
5941,1365
5942,1364
5943,1389
5944,1366
5945,1393
5946,1399
5947,1427
5948,1472
5949,1497
5950,1535
5951,1572
5952,1535
5953,1494
5954,1497
5955,1456
5956,1453
5957,1420
5958,1411
5959,1405
5960,1374
5961,1384
5962,1422
5963,1415
5964,1451
5965,1443
5966,1447
5967,1443
5968,1419
5969,1399
5970,1392
5971,1369
5972,1374
5973,1407
5974,1424
5975,1394
5976,1410
5977,1356
5978,1403
5979,1401
5980,1435
5981,1456
5982,1474
5983,1529
5984,1535
5985,1566
5986,1535
5987,1533
5988,1404
5989,1475
5990,1405
5991,1437
5992,1389
5993,1396
5994,1378
5995,1384
5996,1421
5997,1441
5998,1488
5999,1447
6000,1486
6001,1466
6002,1443
6003,1477
6004,1463
6005,1453
6006,1449
6007,1465
6008,1471
6009,1476
6010,1472
6011,1483
6012,1485
6013,1502
6014,1497
6015,1516
6016,1521
6017,1597
6018,1657
6019,1680
6020,1644
6021,1632
6022,1632
6023,1535
6024,1535
6025,1488
6026,1456
6027,1424
6028,1446
6029,1413
6030,1424
6031,1431
6032,1435
6033,1463
6034,1488
6035,1471
6036,1463
6037,1441
6038,1279
6039,1435
6040,1468
6041,1428
6042,1442
6043,1426
6044,1422
6045,1410
6046,1505
6047,1468
6048,1445
6049,1412
6050,1535
6051,1591
6052,1646
6053,1660
6054,1617
6055,1627
6056,1535
6057,1491
6058,1467
6059,1422
6060,1445
6061,1303
6062,1426
6063,1392
6064,1473
6065,1488
6066,1443
6067,1518
6068,1520
6069,1508
6070,1492
6071,1515
6072,1589
6073,1509
6074,1535
6075,1521
6076,1509
6077,1494
6078,1517
6079,1489
6080,1499
6081,1535
6082,1577
6083,1651
6084,1694
6085,1668
6086,1658
6087,1615
6088,1575
6089,1523
6090,1495
6091,1470
6092,1435
6093,1408
6094,1424
6095,1413
6096,1465
6097,1488
6098,1501
6099,1477
6100,1477
6101,1424
6102,1431
6103,1434
6104,1425
6105,1414
6106,1431
6107,1414
6108,1413
6109,1427
6110,1413
6111,1434
6112,1471
6113,1520
6114,1535
6115,1556
6116,1555
6117,1485
6118,1455
6119,1434
6120,1410
6121,1371
6122,1329
6123,1335
6124,1327
6125,1338
6126,1348
6127,1359
6128,1350
6129,1360
6130,1316
6131,1329
6132,1318
6133,1307
6134,1298
6135,1318
6136,1330
6137,1336
6138,1327
6139,1357
6140,1349
6141,1355
6142,1383
6143,1412
6144,1484
6145,1535
6146,1535
6147,1535
6148,1493
6149,1459
6150,1434
6151,1396
6152,1369
6153,1360
6154,1324
6155,1341
6156,1331
6157,1345
6158,1373
6159,1364
6160,1383
6161,1383
6162,1363
6163,1362
6164,1355
6165,1345
6166,1312
6167,1298
6168,1318
6169,1322
6170,1318
6171,1301
6172,1315
6173,1322
6174,1335
6175,1398
6176,1427
6177,1456
6178,1427
6179,1392
6180,1369
6181,1415
6182,1387
6183,1360
6184,1343
6185,1303
6186,1265
6187,1264
6188,1250
6189,1244
6190,1260
6191,1313
6192,1353
6193,1372
6194,1360
6195,1357
6196,1347
6197,1360
6198,1338
6199,1339
6200,1347
6201,1358
6202,1343
6203,1365
6204,1378
6205,1391
6206,1408
6207,1447
6208,1519
6209,1530
6210,1529
6211,1506
6212,1479
6213,1424
6214,1392
6215,1421
6216,1360
6217,1313
6218,1323
6219,1330
6220,1341
6221,1344
6222,1360
6223,1362
6224,1360
6225,1361
6226,1359
6227,1351
6228,1361
6229,1337
6230,1360
6231,1340
6232,1334
6233,1357
6234,1350
6235,1355
6236,1367
6237,1406
6238,1439
6239,1487
6240,1519
6241,1521
6242,1488
6243,1460
6244,1414
6245,1383
6246,1367
6247,1355
6248,1323
6249,1307
6250,1312
6251,1327
6252,1340
6253,1369
6254,1388
6255,1382
6256,1373
6257,1367
6258,1359
6259,1346
6260,1344
6261,1358
6262,1347
6263,1352
6264,1360
6265,1359
6266,1366
6267,1370
6268,1401
6269,1424
6270,1465
6271,1515
6272,1535
6273,1535
6274,1535
6275,1474
6276,1463
6277,1455
6278,1401
6279,1424
6280,1371
6281,1319
6282,1316
6283,1314
6284,1324
6285,1351
6286,1333
6287,1360
6288,1342
6289,1341
6290,1349
6291,1333
6292,1353
6293,1338
6294,1341
6295,1360
6296,1352
6297,1360
6298,1370
6299,1380
6300,1403
6301,1421
6302,1474
6303,1535
6304,1557
6305,1584
6306,1571
6307,1531
6308,1486
6309,1456
6310,1456
6311,1411
6312,1437
6313,1401
6314,1388
6315,1322
6316,1314
6317,1329
6318,1338
6319,1344
6320,1349
6321,1387
6322,1379
6323,1359
6324,1351
6325,1358
6326,1286
6327,1349
6328,1359
6329,1424
6330,1365
6331,1376
6332,1366
6333,1362
6334,1383
6335,1424
6336,1441
6337,1471
6338,1485
6339,1527
6340,1490
6341,1469
6342,1456
6343,1392
6344,1393
6345,1377
6346,1354
6347,1351
6348,1360
6349,1378
6350,1384
6351,1386
6352,1383
6353,1339
6354,1463
6355,1371
6356,1382
6357,1363
6358,1375
6359,1392
6360,1339
6361,1353
6362,1378
6363,1361
6364,1402
6365,1382
6366,1422
6367,1424
6368,1398
6369,1489
6370,1495
6371,1469
6372,1402
6373,1392
6374,1358
6375,1360
6376,1306
6377,1294
6378,1281
6379,1275
6380,1275
6381,1258
6382,1295
6383,1287
6384,1307
6385,1302
6386,1351
6387,1200
6388,1271
6389,1281
6390,1301
6391,1249
6392,1296
6393,1302
6394,1325
6395,1347
6396,1365
6397,1392
6398,1431
6399,1439
6400,1450
6401,1423
6402,1351
6403,1333
6404,1280
6405,1266
6406,1236
6407,1197
6408,1215
6409,1187
6410,1198
6411,1251
6412,1247
6413,1263
6414,1241
6415,1267
6416,1231
6417,1266
6418,1278
6419,1274
6420,1232
6421,1277
6422,1280
6423,1285
6424,1259
6425,1254
6426,1356
6427,1360
6428,1419
6429,1404
6430,1380
6431,1407
6432,1360
6433,1328
6434,1296
6435,1242
6436,1258
6437,1216
6438,1219
6439,1234
6440,1207
6441,1215
6442,1230
6443,1249
6444,1228
6445,1218
6446,1213
6447,1215
6448,1247
6449,1211
6450,1181
6451,1200
6452,1246
6453,1205
6454,1264
6455,1295
6456,1351
6457,1382
6458,1413
6459,1423
6460,1341
6461,1367
6462,1329
6463,1326
6464,1317
6465,1323
6466,1328
6467,1242
6468,1316
6469,1344
6470,1264
6471,1257
6472,1291
6473,1254
6474,1278
6475,1305
6476,1282
6477,1282
6478,1307
6479,1275
6480,1258
6481,1196
6482,1295
6483,1272
6484,1275
6485,1264
6486,1310
6487,1361
6488,1360
6489,1369
6490,1418
6491,1407
6492,1389
6493,1357
6494,1331
6495,1357
6496,1286
6497,1276
6498,1245
6499,1275
6500,1325
6501,1341
6502,1282
6503,1264
6504,1351
6505,1326
6506,1359
6507,1337
6508,1146
6509,1353
6510,1379
6511,1266
6512,1321
6513,1278
6514,1375
6515,1306
6516,1399
6517,1421
6518,1406
6519,1424
6520,1445
6521,1475
6522,1424
6523,1457
6524,1413
6525,1394
6526,1472
6527,1334
6528,1296
6529,1282
6530,1301
6531,1295
6532,1314
6533,1284
6534,1296
6535,1317
6536,1289
6537,1276
6538,1301
6539,1296
6540,1314
6541,1295
6542,1315
6543,1257
6544,1305
6545,1326
6546,1338
6547,1328
6548,1324
6549,1377
6550,1367
6551,1453
6552,1445
6553,1424
6554,1374
6555,1351
6556,1314
6557,1296
6558,1275
6559,1247
6560,1249
6561,1274
6562,1295
6563,1279
6564,1285
6565,1292
6566,1296
6567,1318
6568,1302
6569,1273
6570,1286
6571,1268
6572,1278
6573,1277
6574,1310
6575,1302
6576,1263
6577,1294
6578,1262
6579,1285
6580,1319
6581,1345
6582,1360
6583,1351
6584,1350
6585,1403
6586,1355
6587,1360
6588,1337
6589,1262
6590,1239
6591,1215
6592,1220
6593,1219
6594,1235
6595,1301
6596,1243
6597,1267
6598,1259
6599,1258
6600,1237
6601,1264
6602,1250
6603,1246
6604,1257
6605,1273
6606,1271
6607,1262
6608,1302
6609,1237
6610,1237
6611,1262
6612,1280
6613,1301
6614,1343
6615,1362
6616,1395
6617,1411
6618,1471
6619,1442
6620,1403
6621,1363
6622,1339
6623,1322
6624,1290
6625,1273
6626,1264
6627,1255
6628,1286
6629,1242
6630,1249
6631,1265
6632,1280
6633,1269
6634,1263
6635,1245
6636,1248
6637,1243
6638,1251
6639,1275
6640,1277
6641,1247
6642,1293
6643,1271
6644,1257
6645,1280
6646,1296
6647,1296
6648,1283
6649,1323
6650,1360
6651,1407
6652,1443
6653,1437
6654,1430
6655,1434
6656,1434
6657,1391
6658,1367
6659,1346
6660,1331
6661,1327
6662,1283
6663,1296
6664,1271
6665,1290
6666,1279
6667,1267
6668,1293
6669,1327
6670,1306
6671,1281
6672,1230
6673,1328
6674,1314
6675,1279
6676,1277
6677,1284
6678,1283
6679,1329
6680,1312
6681,1303
6682,1314
6683,1333
6684,1376
6685,1408
6686,1431
6687,1422
6688,1419
6689,1436
6690,1427
6691,1399
6692,1375
6693,1330
6694,1337
6695,1282
6696,1252
6697,1264
6698,1289
6699,1296
6700,1285
6701,1328
6702,1297
6703,1293
6704,1287
6705,1302
6706,1281
6707,1293
6708,1343
6709,1280
6710,1274
6711,1287
6712,1293
6713,1315
6714,1295
6715,1302
6716,1360
6717,1424
6718,1429
6719,1455
6720,1421
6721,1422
6722,1449
6723,1392
6724,1344
6725,1343
6726,1347
6727,1274
6728,1265
6729,1270
6730,1276
6731,1263
6732,1285
6733,1278
6734,1322
6735,1296
6736,1329
6737,1327
6738,1293
6739,1314
6740,1296
6741,1291
6742,1303
6743,1278
6744,1279
6745,1294
6746,1295
6747,1314
6748,1325
6749,1341
6750,1394
6751,1443
6752,1456
6753,1439
6754,1452
6755,1424
6756,1441
6757,1383
6758,1351
6759,1339
6760,1221
6761,1289
6762,1310
6763,1290
6764,1296
6765,1325
6766,1327
6767,1342
6768,1335
6769,1351
6770,1340
6771,1331
6772,1334
6773,1351
6774,1334
6775,1314
6776,1381
6777,1367
6778,1369
6779,1418
6780,1375
6781,1387
6782,1439
6783,1488
6784,1520
6785,1534
6786,1569
6787,1529
6788,1519
6789,1493
6790,1454
6791,1418
6792,1392
6793,1367
6794,1349
6795,1351
6796,1346
6797,1327
6798,1375
6799,1382
6800,1396
6801,1361
6802,1397
6803,1392
6804,1401
6805,1368
6806,1395
6807,1390
6808,1450
6809,1392
6810,1434
6811,1450
6812,1437
6813,1475
6814,1456
6815,1495
6816,1507
6817,1535
6818,1621
6819,1678
6820,1696
6821,1662
6822,1673
6823,1603
6824,1568
6825,1535
6826,1489
6827,1490
6828,1410
6829,1445
6830,1463
6831,1460
6832,1493
6833,1491
6834,1509
6835,1502
6836,1514
6837,1535
6838,1523
6839,1525
6840,1485
6841,1505
6842,1501
6843,1467
6844,1513
6845,1519
6846,1517
6847,1534
6848,1557
6849,1605
6850,1650
6851,1687
6852,1695
6853,1683
6854,1633
6855,1610
6856,1571
6857,1501
6858,1520
6859,1469
6860,1470
6861,1474
6862,1476
6863,1573
6864,1535
6865,1584
6866,1523
6867,1424
6868,1555
6869,1571
6870,1506
6871,1521
6872,1515
6873,1519
6874,1526
6875,1525
6876,1531
6877,1575
6878,1535
6879,1501
6880,1648
6881,1727
6882,1734
6883,1748
6884,1713
6885,1664
6886,1691
6887,1613
6888,1568
6889,1561
6890,1530
6891,1503
6892,1517
6893,1511
6894,1555
6895,1514
6896,1569
6897,1565
6898,1565
6899,1565
6900,1567
6901,1568
6902,1513
6903,1582
6904,1532
6905,1579
6906,1558
6907,1520
6908,1535
6909,1535
6910,1584
6911,1655
6912,1696
6913,1747
6914,1678
6915,1697
6916,1710
6917,1615
6918,1579
6919,1531
6920,1473
6921,1474
6922,1471
6923,1472
6924,1472
6925,1462
6926,1479
6927,1493
6928,1475
6929,1491
6930,1489
6931,1488
6932,1483
6933,1486
6934,1463
6935,1467
6936,1463
6937,1462
6938,1434
6939,1485
6940,1483
6941,1518
6942,1535
6943,1563
6944,1616
6945,1615
6946,1589
6947,1575
6948,1522
6949,1466
6950,1463
6951,1431
6952,1402
6953,1387
6954,1392
6955,1403
6956,1401
6957,1407
6958,1418
6959,1421
6960,1401
6961,1395
6962,1374
6963,1383
6964,1370
6965,1363
6966,1363
6967,1344
6968,1360
6969,1348
6970,1344
6971,1311
6972,1360
6973,1375
6974,1419
6975,1449
6976,1462
6977,1459
6978,1417
6979,1389
6980,1369
6981,1331
6982,1291
6983,1278
6984,1281
6985,1254
6986,1283
6987,1279
6988,1307
6989,1302
6990,1309
6991,1305
6992,1295
6993,1296
6994,1296
6995,1301
6996,1286
6997,1309
6998,1291
6999,1295
7000,1305
7001,1298
7002,1324
7003,1326
7004,1341
7005,1377
7006,1409
7007,1456
7008,1441
7009,1429
7010,1399
7011,1363
7012,1341
7013,1328
7014,1290
7015,1281
7016,1269
7017,1285
7018,1293
7019,1298
7020,1302
7021,1308
7022,1321
7023,1302
7024,1311
7025,1295
7026,1302
7027,1289
7028,1296
7029,1291
7030,1291
7031,1296
7032,1295
7033,1307
7034,1298
7035,1296
7036,1301
7037,1316
7038,1355
7039,1410
7040,1431
7041,1439
7042,1423
7043,1410
7044,1375
7045,1329
7046,1312
7047,1286
7048,1295
7049,1269
7050,1278
7051,1264
7052,1281
7053,1291
7054,1289
7055,1296
7056,1289
7057,1293
7058,1280
7059,1296
7060,1290
7061,1282
7062,1285
7063,1289
7064,1285
7065,1306
7066,1298
7067,1296
7068,1302
7069,1306
7070,1313
7071,1317
7072,1335
7073,1375
7074,1411
7075,1443
7076,1462
7077,1424
7078,1397
7079,1373
7080,1343
7081,1318
7082,1304
7083,1291
7084,1292
7085,1266
7086,1281
7087,1278
7088,1305
7089,1289
7090,1296
7091,1294
7092,1302
7093,1282
7094,1296
7095,1306
7096,1283
7097,1276
7098,1291
7099,1286
7100,1291
7101,1295
7102,1299
7103,1303
7104,1306
7105,1296
7106,1328
7107,1309
7108,1326
7109,1334
7110,1346
7111,1411
7112,1456
7113,1462
7114,1435
7115,1407
7116,1406
7117,1389
7118,1374
7119,1315
7120,1299
7121,1355
7122,1296
7123,1245
7124,1259
7125,1267
7126,1253
7127,1255
7128,1263
7129,1296
7130,1340
7131,1311
7132,1331
7133,1279
7134,1249
7135,1232
7136,1231
7137,1261
7138,1293
7139,1322
7140,1297
7141,1297
7142,1326
7143,1296
7144,1296
7145,1331
7146,1351
7147,1337
7148,1379
7149,1360
7150,1422
7151,1415
7152,1374
7153,1425
7154,1333
7155,1323
7156,1314
7157,1287
7158,1283
7159,1271
7160,1294
7161,1265
7162,1303
7163,1277
7164,1299
7165,1277
7166,1268
7167,1278
7168,1253
7169,1265
7170,1235
7171,1246
7172,1253
7173,1223
7174,1254
7175,1264
7176,1275
7177,1263
7178,1251
7179,1258
7180,1250
7181,1168
7182,1282
7183,1327
7184,1506
7185,1398
7186,1350
7187,1380
7188,1342
7189,1315
7190,1257
7191,1235
7192,1211
7193,1188
7194,1203
7195,1171
7196,1147
7197,1168
7198,1195
7199,1202
7200,1213
7201,1199
7202,1205
7203,1205
7204,1168
7205,1190
7206,1231
7207,1182
7208,1195
7209,1137
7210,1181
7211,1192
7212,1188
7213,1232
7214,1192
7215,1189
7216,1200
7217,1196
7218,1215
7219,1248
7220,1297
7221,1321
7222,1330
7223,1317
7224,1265
7225,1264
7226,1227
7227,1191
7228,1104
7229,1156
7230,1137
7231,1146
7232,1171
7233,1128
7234,1124
7235,1168
7236,1155
7237,1175
7238,1126
7239,1157
7240,1155
7241,1166
7242,1169
7243,1149
7244,1141
7245,1167
7246,1146
7247,1149
7248,1079
7249,1123
7250,1168
7251,1162
7252,1182
7253,1177
7254,1175
7255,1191
7256,1201
7257,1266
7258,1274
7259,1334
7260,951
7261,1341
7262,1301
7263,1280
7264,1226
7265,1181
7266,1164
7267,1126
7268,1122
7269,1163
7270,1105
7271,1059
7272,1145
7273,1153
7274,1155
7275,1155
7276,1141
7277,1149
7278,1136
7279,1151
7280,1152
7281,1139
7282,1127
7283,1152
7284,1153
7285,1146
7286,1163
7287,1149
7288,1148
7289,1166
7290,1181
7291,1211
7292,1205
7293,1184
7294,1221
7295,1237
7296,1298
7297,1315
7298,1234
7299,1329
7300,1263
7301,1206
7302,1179
7303,1163
7304,1141
7305,1134
7306,1137
7307,1107
7308,1153
7309,1148
7310,1153
7311,1175
7312,1182
7313,1194
7314,1168
7315,1169
7316,1162
7317,1171
7318,1171
7319,1157
7320,1191
7321,1180
7322,1200
7323,1186
7324,1200
7325,1199
7326,1210
7327,1217
7328,1222
7329,1227
7330,1231
7331,1278
7332,1275
7333,1293
7334,1328
7335,1394
7336,1358
7337,1328
7338,1308
7339,1266
7340,1246
7341,1229
7342,1206
7343,1182
7344,1211
7345,1198
7346,1215
7347,1225
7348,1232
7349,1232
7350,1242
7351,1235
7352,1238
7353,1232
7354,1225
7355,1221
7356,1219
7357,1231
7358,1243
7359,1258
7360,1251
7361,1258
7362,1259
7363,1269
7364,1269
7365,1278
7366,1278
7367,1289
7368,1297
7369,1322
7370,1328
7371,1353
7372,1360
7373,1403
7374,1380
7375,1349
7376,1307
7377,1266
7378,1247
7379,1249
7380,1243
7381,1249
7382,1250
7383,1233
7384,1214
7385,1241
7386,1217
7387,1279
7388,1264
7389,1268
7390,1257
7391,1269
7392,1254
7393,1209
7394,1262
7395,1214
7396,1253
7397,1258
7398,1273
7399,1263
7400,1243
7401,1234
7402,1306
7403,1354
7404,1387
7405,1375
7406,1374
7407,1331
7408,1326
7409,1320
7410,1281
7411,1289
7412,1250
7413,1222
7414,1207
7415,1210
7416,1211
7417,1223
7418,1232
7419,1245
7420,1251
7421,1238
7422,1245
7423,1216
7424,1225
7425,1218
7426,1239
7427,1216
7428,1235
7429,1243
7430,1215
7431,1203
7432,1212
7433,1248
7434,1245
7435,1322
7436,1341
7437,1325
7438,1310
7439,1306
7440,1319
7441,1284
7442,1254
7443,1269
7444,1255
7445,1183
7446,1175
7447,1181
7448,1198
7449,1182
7450,1179
7451,1184
7452,1205
7453,1195
7454,1190
7455,1184
7456,1175
7457,1189
7458,1182
7459,1167
7460,1244
7461,1200
7462,1204
7463,1247
7464,1296
7465,1313
7466,1328
7467,1301
7468,1284
7469,1297
7470,1278
7471,1269
7472,1250
7473,1263
7474,1155
7475,1218
7476,1191
7477,1195
7478,1202
7479,1168
7480,1171
7481,1171
7482,1183
7483,1173
7484,1195
7485,1185
7486,1185
7487,1178
7488,1200
7489,1200
7490,1191
7491,1189
7492,1207
7493,1237
7494,1303
7495,1350
7496,1374
7497,1350
7498,1331
7499,1313
7500,1302
7501,1267
7502,1231
7503,1237
7504,1217
7505,1200
7506,1197
7507,1207
7508,1208
7509,1216
7510,1238
7511,1216
7512,1218
7513,1218
7514,1200
7515,1209
7516,1253
7517,1189
7518,1203
7519,1235
7520,1210
7521,1205
7522,1233
7523,1221
7524,1235
7525,1275
7526,1294
7527,1393
7528,1378
7529,1344
7530,1328
7531,1310
7532,1309
7533,1264
7534,1260
7535,1281
7536,1248
7537,1227
7538,1219
7539,1238
7540,1200
7541,1248
7542,1256
7543,1234
7544,1237
7545,1237
7546,1238
7547,1222
7548,1230
7549,1247
7550,1264
7551,1261
7552,1247
7553,1264
7554,1249
7555,1250
7556,1269
7557,1281
7558,1323
7559,1387
7560,1392
7561,1394
7562,1385
7563,1369
7564,1323
7565,1313
7566,1298
7567,1248
7568,1239
7569,1231
7570,1250
7571,1248
7572,1233
7573,1252
7574,1258
7575,1228
7576,1247
7577,1242
7578,1231
7579,1273
7580,1234
7581,1233
7582,1101
7583,1253
7584,1258
7585,1238
7586,1255
7587,1262
7588,1259
7589,1293
7590,1275
7591,1296
7592,1339
7593,1392
7594,1387
7595,1402
7596,1340
7597,1337
7598,1303
7599,1296
7600,1264
7601,1242
7602,1228
7603,1225
7604,1219
7605,1231
7606,1278
7607,1243
7608,1251
7609,1251
7610,1211
7611,1235
7612,1218
7613,1241
7614,1232
7615,1220
7616,1232
7617,1226
7618,1232
7619,1200
7620,1243
7621,1237
7622,1251
7623,1230
7624,1315
7625,1345
7626,1359
7627,1354
7628,1326
7629,1297
7630,1275
7631,1254
7632,1219
7633,1206
7634,1209
7635,1187
7636,1205
7637,1174
7638,1216
7639,1194
7640,1226
7641,1271
7642,1168
7643,1204
7644,1188
7645,1190
7646,1199
7647,1198
7648,1184
7649,1195
7650,1149
7651,1200
7652,1182
7653,1189
7654,1214
7655,1243
7656,1255
7657,1291
7658,1275
7659,1295
7660,1290
7661,1232
7662,1296
7663,1235
7664,1246
7665,1193
7666,1231
7667,1168
7668,1163
7669,1165
7670,1175
7671,1171
7672,1120
7673,1190
7674,1183
7675,1178
7676,1195
7677,1166
7678,1157
7679,1158
7680,1157
7681,1171
7682,1163
7683,1157
7684,1155
7685,1166
7686,1175
7687,1167
7688,1184
7689,1229
7690,1269
7691,1287
7692,1285
7693,1264
7694,1282
7695,1279
7696,1241
7697,1215
7698,1199
7699,1188
7700,1187
7701,1170
7702,1141
7703,1151
7704,1170
7705,1182
7706,1153
7707,1145
7708,1146
7709,1168
7710,1151
7711,1139
7712,1137
7713,1148
7714,1168
7715,1179
7716,1142
7717,1141
7718,1151
7719,1215
7720,1165
7721,1154
7722,1187
7723,1232
7724,1282
7725,1294
7726,1295
7727,1278
7728,1255
7729,1270
7730,1225
7731,1247
7732,1222
7733,1197
7734,1163
7735,1154
7736,1194
7737,1169
7738,1162
7739,1143
7740,1181
7741,1205
7742,1146
7743,1203
7744,1153
7745,1142
7746,1143
7747,1149
7748,1193
7749,1151
7750,1154
7751,1190
7752,1182
7753,1161
7754,1169
7755,1146
7756,1143
7757,1169
7758,1195
7759,1223
7760,1270
7761,1295
7762,1283
7763,1265
7764,1266
7765,1298
7766,1264
7767,1216
7768,1215
7769,1174
7770,1200
7771,1185
7772,1138
7773,1161
7774,1135
7775,1161
7776,1156
7777,1174
7778,1169
7779,1141
7780,1137
7781,1139
7782,1145
7783,1146
7784,1134
7785,1141
7786,1150
7787,1146
7788,1183
7789,1142
7790,1157
7791,1151
7792,1200
7793,1185
7794,1166
7795,1216
7796,1232
7797,1263
7798,1293
7799,1273
7800,1280
7801,1253
7802,1263
7803,1233
7804,1252
7805,1215
7806,1195
7807,1156
7808,1151
7809,1167
7810,1143
7811,1148
7812,1159
7813,1183
7814,1166
7815,1163
7816,1171
7817,1173
7818,1178
7819,1213
7820,1212
7821,1153
7822,1206
7823,1159
7824,1185
7825,1184
7826,1180
7827,1185
7828,1189
7829,1188
7830,1178
7831,1200
7832,1210
7833,1275
7834,1296
7835,1322
7836,1296
7837,1289
7838,1262
7839,1253
7840,1291
7841,1209
7842,1237
7843,1189
7844,1219
7845,1200
7846,1104
7847,1205
7848,1205
7849,1190
7850,1200
7851,1226
7852,1247
7853,1219
7854,1218
7855,1203
7856,1216
7857,1135
7858,1200
7859,1215
7860,1210
7861,1210
7862,1162
7863,1213
7864,1232
7865,1213
7866,1225
7867,1226
7868,1212
7869,1254
7870,1216
7871,1257
7872,1276
7873,1323
7874,1264
7875,1344
7876,1302
7877,1289
7878,1283
7879,1267
7880,1258
7881,1245
7882,1212
7883,1183
7884,1142
7885,1195
7886,1189
7887,1201
7888,1167
7889,1229
7890,1297
7891,1232
7892,1285
7893,1227
7894,1216
7895,1213
7896,1187
7897,1227
7898,1211
7899,1223
7900,1214
7901,1279
7902,1301
7903,1255
7904,1217
7905,1271
7906,1245
7907,1260
7908,1279
7909,1329
7910,1360
7911,1390
7912,1357
7913,1351
7914,1299
7915,1283
7916,1250
7917,1259
7918,1237
7919,1233
7920,1207
7921,1175
7922,1251
7923,1199
7924,1229
7925,1232
7926,1202
7927,1184
7928,1190
7929,1179
7930,1205
7931,1216
7932,1215
7933,1190
7934,1194
7935,1161
7936,1183
7937,1238
7938,1219
7939,1232
7940,1222
7941,1259
7942,1264
7943,1335
7944,1284
7945,1326
7946,1314
7947,1273
7948,1245
7949,1230
7950,1196
7951,1165
7952,1184
7953,1183
7954,1175
7955,1200
7956,1242
7957,1215
7958,1227
7959,1247
7960,1222
7961,1198
7962,1183
7963,1208
7964,1232
7965,1207
7966,1180
7967,1209
7968,1185
7969,1228
7970,1216
7971,1202
7972,1213
7973,1241
7974,1286
7975,1277
7976,1285
7977,1351
7978,1270
7979,1293
7980,1282
7981,1275
7982,1187
7983,1232
7984,1226
7985,1199
7986,1219
7987,1197
7988,1168
7989,1187
7990,1164
7991,1152
7992,1181
7993,1131
7994,1163
7995,1181
7996,1156
7997,1205
7998,1151
7999,1163
8000,1169
8001,1179
8002,1159
8003,1162
8004,1168
8005,1175
8006,1193
8007,1178
8008,1267
8009,1315
8010,1260
8011,1359
8012,1271
8013,1282
8014,1102
8015,1255
8016,1263
8017,1250
8018,1191
8019,1190
8020,1164
8021,1233
8022,1115
8023,1205
8024,1132
8025,1148
8026,1175
8027,1150
8028,1173
8029,1167
8030,1162
8031,1168
8032,1137
8033,1162
8034,1165
8035,1163
8036,1172
8037,1162
8038,1169
8039,1186
8040,1177
8041,1176
8042,1201
8043,1250
8044,1296
8045,1323
8046,1311
8047,1280
8048,1257
8049,1246
8050,1234
8051,1213
8052,1205
8053,1191
8054,1170
8055,1182
8056,1169
8057,1171
8058,1168
8059,1165
8060,1168
8061,1160
8062,1169
8063,1166
8064,1185
8065,1154
8066,1159
8067,1170
8068,1159
8069,1168
8070,1167
8071,1179
8072,1171
8073,1187
8074,1177
8075,1197
8076,1199
8077,1199
8078,1235
8079,1295
8080,1311
8081,1295
8082,1275
8083,1271
8084,1287
8085,1264
8086,1259
8087,1218
8088,1223
8089,1168
8090,1157
8091,1157
8092,1147
8093,1172
8094,1186
8095,1168
8096,1168
8097,1156
8098,1154
8099,1163
8100,1157
8101,1165
8102,1151
8103,1152
8104,1153
8105,1170
8106,1165
8107,1166
8108,1166
8109,1178
8110,1172
8111,1191
8112,1217
8113,1276
8114,1296
8115,1297
8116,1291
8117,1267
8118,1272
8119,1232
8120,1211
8121,1210
8122,1237
8123,1168
8124,1200
8125,1161
8126,1137
8127,1154
8128,1173
8129,1155
8130,1159
8131,1168
8132,1152
8133,1153
8134,1195
8135,1157
8136,1141
8137,1158
8138,1163
8139,1155
8140,1142
8141,1162
8142,1170
8143,1167
8144,1164
8145,1163
8146,1170
8147,1189
8148,1230
8149,1265
8150,1291
8151,1313
8152,1287
8153,1264
8154,1262
8155,1250
8156,1266
8157,1242
8158,1237
8159,1171
8160,1190
8161,1205
8162,1150
8163,1149
8164,1162
8165,1153
8166,1151
8167,1168
8168,1161
8169,1136
8170,1146
8171,1145
8172,1157
8173,1136
8174,1154
8175,1137
8176,1149
8177,1168
8178,1154
8179,1159
8180,1163
8181,1173
8182,1171
8183,1179
8184,1173
8185,1223
8186,1252
8187,1306
8188,1289
8189,1297
8190,1280
8191,1252
8192,1259
8193,1255
8194,1232
8195,1250
8196,1185
8197,1201
8198,1199
8199,1184
8200,1170
8201,1185
8202,1184
8203,1198
8204,1202
8205,1211
8206,1216
8207,1229
8208,1232
8209,1201
8210,1226
8211,1199
8212,1223
8213,1209
8214,1261
8215,1221
8216,1107
8217,1253
8218,1239
8219,1236
8220,1280
8221,1311
8222,1369
8223,1352
8224,1344
8225,1327
8226,1344
8227,1311
8228,1254
8229,1277
8230,1239
8231,1233
8232,1216
8233,1222
8234,1216
8235,1235
8236,1227
8237,1254
8238,1237
8239,1212
8240,1264
8241,1262
8242,1219
8243,1254
8244,1217
8245,1233
8246,1247
8247,1245
8248,1227
8249,1265
8250,1239
8251,1255
8252,1260
8253,1258
8254,1287
8255,1327
8256,1367
8257,1395
8258,1276
8259,1391
8260,1362
8261,1330
8262,1299
8263,1253
8264,1291
8265,1237
8266,1233
8267,1261
8268,1261
8269,1205
8270,1255
8271,1266
8272,1267
8273,1252
8274,1249
8275,1261
8276,1252
8277,1250
8278,1239
8279,1241
8280,1239
8281,1238
8282,1235
8283,1233
8284,1264
8285,1241
8286,1226
8287,1275
8288,1253
8289,1259
8290,1315
8291,1364
8292,1406
8293,1381
8294,1395
8295,1370
8296,1335
8297,1301
8298,1264
8299,1266
8300,1258
8301,1265
8302,1237
8303,1243
8304,1221
8305,1248
8306,1234
8307,1203
8308,1250
8309,1234
8310,1234
8311,1239
8312,1244
8313,1232
8314,1233
8315,1234
8316,1236
8317,1272
8318,1257
8319,1247
8320,1255
8321,1246
8322,1262
8323,1303
8324,1264
8325,1289
8326,1346
8327,1423
8328,1392
8329,1401
8330,1372
8331,1339
8332,1314
8333,1285
8334,1241
8335,1227
8336,1251
8337,1212
8338,1239
8339,1228
8340,1261
8341,1250
8342,1263
8343,1267
8344,1269
8345,1254
8346,1205
8347,1230
8348,1175
8349,1268
8350,1259
8351,1246
8352,1263
8353,1279
8354,1248
8355,1286
8356,1260
8357,1266
8358,1249
8359,1349
8360,1364
8361,1393
8362,1393
8363,1369
8364,1300
8365,1333
8366,1323
8367,1325
8368,1290
8369,1280
8370,1255
8371,1287
8372,1248
8373,1253
8374,1270
8375,1296
8376,1280
8377,1303
8378,1279
8379,1282
8380,1255
8381,1283
8382,1282
8383,1279
8384,1275
8385,1275
8386,1281
8387,1287
8388,1298
8389,1282
8390,1280
8391,1305
8392,1302
8393,1351
8394,1401
8395,1423
8396,1442
8397,1415
8398,1393
8399,1361
8400,1411
8401,1345
8402,1328
8403,1322
8404,1294
8405,1284
8406,1285
8407,1269
8408,1287
8409,1291
8410,1290
8411,1306
8412,1302
8413,1278
8414,1289
8415,1283
8416,1280
8417,1296
8418,1289
8419,1301
8420,1293
8421,1290
8422,1280
8423,1294
8424,1299
8425,1317
8426,1326
8427,1356
8428,1402
8429,1454
8430,1455
8431,1430
8432,1392
8433,1383
8434,1369
8435,1350
8436,1329
8437,1331
8438,1300
8439,1330
8440,1299
8441,1299
8442,1321
8443,1305
8444,1306
8445,1326
8446,1323
8447,1311
8448,1307
8449,1298
8450,1317
8451,1298
8452,1300
8453,1307
8454,1291
8455,1296
8456,1305
8457,1322
8458,1360
8459,1390
8460,1431
8461,1442
8462,1457
8463,1410
8464,1443
8465,1383
8466,1376
8467,1356
8468,1342
8469,1351
8470,1357
8471,1309
8472,1290
8473,1304
8474,1310
8475,1319
8476,1317
8477,1301
8478,1301
8479,1301
8480,1303
8481,1295
8482,1361
8483,1303
8484,1291
8485,1297
8486,1295
8487,1301
8488,1311
8489,1326
8490,1367
8491,1419
8492,1440
8493,1459
8494,1424
8495,1436
8496,1408
8497,1381
8498,1407
8499,1351
8500,1326
8501,1337
8502,1325
8503,1319
8504,1286
8505,1279
8506,1289
8507,1296
8508,1296
8509,1301
8510,1295
8511,1298
8512,1285
8513,1283
8514,1294
8515,1284
8516,1296
8517,1282
8518,1291
8519,1289
8520,1298
8521,1294
8522,1297
8523,1324
8524,1370
8525,1440
8526,1434
8527,1426
8528,1391
8529,1397
8530,1362
8531,1355
8532,1339
8533,1342
8534,1310
8535,1313
8536,1324
8537,1271
8538,1270
8539,1259
8540,1277
8541,1271
8542,1277
8543,1255
8544,1283
8545,1289
8546,1283
8547,1280
8548,1277
8549,1275
8550,1270
8551,1285
8552,1299
8553,1296
8554,1298
8555,1319
8556,1312
8557,1331
8558,1296
8559,1343
8560,1391
8561,1393
8562,1392
8563,1428
8564,1411
8565,1399
8566,1378
8567,1340
8568,1329
8569,1326
8570,1324
8571,1328
8572,1333
8573,1296
8574,1342
8575,1307
8576,1287
8577,1333
8578,1342
8579,1327
8580,1297
8581,1303
8582,1312
8583,1313
8584,1305
8585,1301
8586,1301
8587,1319
8588,1296
8589,1294
8590,1293
8591,1318
8592,1305
8593,1359
8594,1323
8595,1353
8596,1377
8597,1355
8598,1349
8599,1393
8600,1397
8601,1328
8602,1339
8603,1302
8604,1270
8605,1264
8606,1280
8607,1285
8608,1251
8609,1281
8610,1294
8611,1313
8612,1293
8613,1299
8614,1292
8615,1294
8616,1296
8617,1280
8618,1279
8619,1308
8620,1270
8621,1321
8622,1299
8623,1302
8624,1327
8625,1328
8626,1381
8627,1306
8628,1370
8629,1360
8630,1363
8631,1392
8632,1339
8633,1345
8634,1328
8635,1292
8636,1308
8637,1287
8638,1295
8639,1265
8640,1268
8641,1271
8642,1283
8643,1255
8644,1263
8645,1273
8646,1297
8647,1291
8648,1298
8649,1275
8650,1258
8651,1290
8652,1290
8653,1296
8654,1269
8655,1265
8656,1261
8657,1278
8658,1311
8659,1298
8660,1266
8661,1342
8662,1361
8663,1361
8664,1424
8665,1374
8666,1306
8667,1328
8668,1317
8669,1296
8670,1309
8671,1303
8672,1264
8673,1257
8674,1265
8675,1269
8676,1290
8677,1255
8678,1279
8679,1249
8680,1243
8681,1269
8682,1247
8683,1264
8684,1296
8685,1331
8686,1280
8687,1269
8688,1259
8689,1257
8690,1273
8691,1315
8692,1267
8693,1230
8694,1333
8695,1351
8696,1374
8697,1361
8698,1346
8699,1359
8700,1392
8701,1328
8702,1314
8703,1262
8704,1277
8705,1287
8706,1197
8707,1251
8708,1258
8709,1246
8710,1237
8711,1266
8712,1271
8713,1251
8714,1251
8715,1249
8716,1279
8717,1223
8718,1246
8719,1245
8720,1254
8721,1269
8722,1258
8723,1261
8724,1254
8725,1307
8726,1341
8727,1359
8728,1338
8729,1371
8730,1331
8731,1360
8732,1286
8733,1263
8734,1260
8735,1207
8736,1309
8737,1297
8738,1219
8739,1259
8740,1248
8741,1264
8742,1248
8743,1247
8744,1248
8745,1257
8746,1245
8747,1235
8748,1228
8749,1249
8750,1241
8751,1241
8752,1247
8753,1251
8754,1242
8755,1275
8756,1303
8757,1337
8758,1363
8759,1365
8760,1339
8761,1328
8762,1319
8763,1329
8764,1278
8765,1254
8766,1237
8767,1237
8768,1206
8769,1221
8770,1216
8771,1239
8772,1226
8773,1243
8774,1227
8775,1227
8776,1225
8777,1234
8778,1212
8779,1211
8780,1214
8781,1221
8782,1230
8783,1215
8784,1327
8785,1229
8786,1239
8787,1275
8788,1312
8789,1338
8790,1338
8791,1337
8792,1299
8793,1321
8794,1264
8795,1245
8796,1275
8797,1250
8798,1200
8799,1202
8800,1204
8801,1206
8802,1209
8803,1197
8804,1210
8805,1205
8806,1197
8807,1200
8808,1195
8809,1206
8810,1195
8811,1198
8812,1202
8813,1198
8814,1201
8815,1211
8816,1202
8817,1226
8818,1232
8819,1265
8820,1315
8821,1334
8822,1331
8823,1313
8824,1300
8825,1269
8826,1264
8827,1247
8828,1222
8829,1206
8830,1196
8831,1184
8832,1173
8833,1198
8834,1194
8835,1216
8836,1184
8837,1198
8838,1200
8839,1213
8840,1205
8841,1191
8842,1182
8843,1179
8844,1184
8845,1205
8846,1181
8847,1197
8848,1210
8849,1215
8850,1249
8851,1301
8852,1307
8853,1317
8854,1305
8855,1277
8856,1264
8857,1253
8858,1269
8859,1273
8860,1199
8861,1190
8862,1194
8863,1183
8864,1184
8865,1200
8866,1202
8867,1199
8868,1200
8869,1210
8870,1217
8871,1181
8872,1193
8873,1200
8874,1201
8875,1195
8876,1206
8877,1200
8878,1191
8879,1213
8880,1207
8881,1221
8882,1259
8883,1299
8884,1329
8885,1331
8886,1307
8887,1281
8888,1269
8889,1253
8890,1259
8891,1231
8892,1203
8893,1179
8894,1182
8895,1168
8896,1179
8897,1200
8898,1195
8899,1206
8900,1200
8901,1194
8902,1205
8903,1101
8904,1205
8905,1202
8906,1231
8907,1219
8908,1230
8909,1231
8910,1239
8911,1239
8912,1243
8913,1231
8914,1265
8915,1293
8916,1315
8917,1308
8918,1392
8919,1385
8920,1370
8921,1341
8922,1341
8923,1319
8924,1295
8925,1278
8926,1310
8927,1252
8928,1251
8929,1263
8930,1254
8931,1263
8932,1257
8933,1264
8934,1266
8935,1257
8936,1273
8937,1253
8938,1261
8939,1277
8940,1232
8941,1253
8942,1249
8943,1258
8944,1251
8945,1263
8946,1248
8947,1261
8948,1253
8949,1280
8950,1269
8951,1287
8952,1247
8953,1343
8954,1397
8955,1430
8956,1425
8957,1424
8958,1394
8959,1348
8960,1340
8961,1335
8962,1307
8963,1299
8964,1285
8965,1275
8966,1254
8967,1276
8968,1277
8969,1288
8970,1291
8971,1301
8972,1294
8973,1294
8974,1266
8975,1298
8976,1256
8977,1274
8978,1283
8979,1291
8980,1271
8981,1293
8982,1264
8983,1311
8984,1295
8985,1314
8986,1315
8987,1296
8988,1264
8989,1299
8990,1309
8991,1326
8992,1420
8993,1440
8994,1410
8995,1375
8996,1345
8997,1324
8998,1305
8999,1293
9000,1250
9001,1283
9002,1289
9003,1257
9004,1275
9005,1267
9006,1168
9007,1278
9008,1348
9009,1301
9010,1264
9011,1262
9012,1277
9013,1279
9014,1273
9015,1266
9016,1277
9017,1308
9018,1261
9019,1264
9020,1296
9021,1243
9022,1265
9023,1266
9024,1296
9025,1367
9026,1379
9027,1407
9028,1397
9029,1365
9030,1344
9031,1329
9032,1290
9033,1298
9034,1267
9035,1251
9036,1263
9037,1248
9038,1261
9039,1249
9040,1260
9041,1265
9042,1265
9043,1243
9044,1243
9045,1255
9046,1242
9047,1252
9048,1259
9049,1264
9050,1245
9051,1257
9052,1255
9053,1248
9054,1264
9055,1203
9056,1206
9057,1299
9058,1321
9059,1347
9060,1378
9061,1409
9062,1429
9063,1317
9064,1327
9065,1285
9066,1270
9067,1239
9068,1234
9069,1208
9070,1211
9071,1227
9072,1196
9073,1242
9074,1200
9075,1213
9076,1237
9077,1241
9078,1217
9079,1228
9080,1205
9081,1218
9082,1218
9083,1210
9084,1195
9085,1261
9086,1213
9087,1207
9088,1251
9089,1239
9090,1235
9091,1246
9092,1233
9093,1278
9094,1335
9095,1360
9096,1390
9097,1365
9098,1330
9099,1362
9100,1295
9101,1307
9102,1287
9103,1237
9104,1236
9105,1239
9106,1205
9107,1242
9108,1200
9109,1201
9110,1205
9111,1201
9112,1219
9113,1234
9114,1218
9115,1203
9116,1200
9117,1216
9118,1230
9119,1200
9120,1200
9121,1172
9122,1204
9123,1213
9124,1219
9125,1216
9126,1221
9127,1217
9128,1219
9129,1249
9130,1292
9131,1344
9132,1374
9133,1369
9134,1333
9135,1323
9136,1317
9137,1331
9138,1276
9139,1266
9140,1269
9141,1221
9142,1209
9143,1234
9144,1203
9145,1201
9146,1219
9147,1221
9148,1232
9149,1220
9150,1232
9151,1226
9152,1222
9153,1230
9154,1231
9155,1221
9156,1216
9157,1232
9158,1223
9159,1224
9160,1232
9161,1221
9162,1234
9163,1264
9164,1311
9165,1350
9166,1381
9167,1357
9168,1327
9169,1346
9170,1303
9171,1311
9172,1309
9173,1279
9174,1247
9175,1226
9176,1221
9177,1270
9178,1200
9179,1237
9180,1231
9181,1253
9182,1259
9183,1257
9184,1263
9185,1233
9186,1251
9187,1264
9188,1242
9189,1247
9190,1232
9191,1227
9192,1244
9193,1260
9194,1264
9195,1265
9196,1297
9197,1359
9198,1391
9199,1407
9200,1367
9201,1365
9202,1367
9203,1311
9204,1343
9205,1319
9206,1270
9207,1264
9208,1286
9209,1242
9210,1228
9211,1230
9212,1234
9213,1246
9214,1232
9215,1278
9216,1290
9217,1248
9218,1239
9219,1231
9220,1250
9221,1232
9222,1238
9223,1264
9224,1233
9225,1249
9226,1247
9227,1245
9228,1267
9229,1275
9230,1328
9231,1390
9232,1424
9233,1393
9234,1385
9235,1358
9236,1348
9237,1326
9238,1335
9239,1287
9240,1296
9241,1247
9242,1264
9243,1237
9244,1225
9245,1230
9246,1232
9247,1235
9248,1233
9249,1258
9250,1297
9251,1277
9252,1254
9253,1242
9254,1261
9255,1219
9256,1221
9257,1240
9258,1227
9259,1221
9260,1215
9261,1271
9262,1238
9263,1242
9264,1277
9265,1344
9266,1341
9267,1342
9268,1395
9269,1366
9270,1355
9271,1324
9272,1317
9273,1318
9274,1267
9275,1253
9276,1250
9277,1234
9278,1262
9279,1251
9280,1260
9281,1201
9282,1264
9283,1251
9284,1265
9285,1238
9286,1230
9287,1250
9288,1227
9289,1237
9290,1241
9291,1246
9292,1241
9293,1249
9294,1255
9295,1279
9296,1263
9297,1311
9298,1284
9299,1309
9300,1297
9301,1391
9302,1296
9303,1339
9304,1329
9305,1319
9306,1262
9307,1265
9308,1252
9309,1241
9310,1239
9311,1280
9312,1220
9313,1232
9314,1245
9315,1227
9316,1232
9317,1248
9318,1264
9319,1253
9320,1251
9321,1259
9322,1242
9323,1232
9324,1248
9325,1242
9326,1246
9327,1266
9328,1284
9329,1252
9330,1270
9331,1295
9332,1297
9333,1303
9334,1332
9335,1495
9336,1370
9337,1353
9338,1360
9339,1250
9340,1277
9341,1251
9342,1262
9343,1239
9344,1257
9345,1274
9346,1204
9347,1297
9348,1330
9349,1296
9350,1286
9351,1302
9352,1294
9353,1269
9354,1271
9355,1264
9356,1196
9357,1289
9358,1233
9359,1244
9360,1262
9361,1263
9362,1282
9363,1294
9364,1299
9365,1264
9366,1327
9367,1290
9368,1370
9369,1407
9370,1425
9371,1372
9372,1309
9373,1349
9374,1344
9375,1333
9376,1297
9377,1283
9378,1281
9379,1232
9380,1222
9381,1221
9382,1259
9383,1267
9384,1266
9385,1245
9386,1229
9387,1290
9388,1287
9389,1301
9390,1274
9391,1261
9392,1281
9393,1291
9394,1294
9395,1280
9396,1258
9397,1263
9398,1273
9399,1275
9400,1266
9401,1270
9402,1281
9403,1339
9404,1258
9405,1358
9406,1376
9407,1377
9408,1519
9409,1379
9410,1344
9411,1349
9412,1282
9413,1287
9414,1253
9415,1238
9416,1214
9417,1232
9418,1221
9419,1195
9420,1214
9421,1280
9422,1239
9423,1250
9424,1215
9425,1237
9426,1243
9427,1202
9428,1247
9429,1232
9430,1230
9431,1225
9432,1262
9433,1231
9434,1262
9435,1277
9436,1235
9437,1307
9438,1309
9439,1329
9440,1403
9441,1345
9442,1360
9443,1360
9444,1339
9445,1290
9446,1265
9447,1280
9448,1226
9449,1239
9450,1206
9451,1215
9452,1188
9453,1231
9454,1229
9455,1233
9456,1248
9457,1243
9458,1223
9459,1218
9460,1217
9461,1216
9462,1222
9463,1226
9464,1216
9465,1235
9466,1227
9467,1221
9468,1230
9469,1229
9470,1232
9471,1258
9472,1271
9473,1317
9474,1370
9475,1377
9476,1377
9477,1371
9478,1337
9479,1303
9480,1301
9481,1282
9482,1264
9483,1239
9484,1223
9485,1198
9486,1207
9487,1218
9488,1219
9489,1232
9490,1226
9491,1227
9492,1239
9493,1241
9494,1225
9495,1235
9496,1215
9497,1215
9498,1232
9499,1219
9500,1223
9501,1230
9502,1227
9503,1249
9504,1237
9505,1245
9506,1299
9507,1251
9508,1288
9509,1343
9510,1367
9511,1384
9512,1366
9513,1341
9514,1323
9515,1311
9516,1303
9517,1281
9518,1289
9519,1226
9520,1202
9521,1220
9522,1199
9523,1224
9524,1233
9525,1249
9526,1234
9527,1246
9528,1235
9529,1239
9530,1235
9531,1237
9532,1215
9533,1219
9534,1231
9535,1222
9536,1226
9537,1225
9538,1222
9539,1222
9540,1227
9541,1235
9542,1282
9543,1320
9544,1345
9545,1361
9546,1359
9547,1343
9548,1318
9549,1317
9550,1299
9551,1266
9552,1263
9553,1226
9554,1231
9555,1215
9556,1216
9557,1239
9558,1232
9559,1250
9560,1251
9561,1245
9562,1253
9563,1233
9564,1253
9565,1242
9566,1234
9567,1226
9568,1232
9569,1219
9570,1220
9571,1232
9572,1221
9573,1233
9574,1259
9575,1265
9576,1280
9577,1325
9578,1368
9579,1397
9580,1391
9581,1363
9582,1332
9583,1321
9584,1293
9585,1273
9586,1247
9587,1243
9588,1261
9589,1218
9590,1143
9591,1237
9592,1233
9593,1239
9594,1245
9595,1263
9596,1232
9597,1245
9598,1229
9599,1246
9600,1231
9601,1227
9602,1232
9603,1231
9604,1232
9605,1241
9606,1233
9607,1246
9608,1239
9609,1247
9610,1297
9611,1331
9612,1351
9613,1378
9614,1377
9615,1360
9616,1344
9617,1347
9618,1318
9619,1326
9620,1256
9621,1257
9622,1301
9623,1230
9624,1241
9625,1263
9626,1273
9627,1264
9628,1259
9629,1264
9630,1289
9631,1272
9632,1249
9633,1264
9634,1264
9635,1278
9636,1264
9637,1261
9638,1281
9639,1269
9640,1298
9641,1296
9642,1277
9643,1297
9644,1311
9645,1360
9646,1407
9647,1449
9648,1442
9649,1456
9650,1391
9651,1393
9652,1358
9653,1319
9654,1321
9655,1297
9656,1295
9657,1298
9658,1290
9659,1294
9660,1299
9661,1295
9662,1309
9663,1345
9664,1299
9665,1269
9666,1296
9667,1280
9668,1283
9669,1284
9670,1287
9671,1281
9672,1296
9673,1302
9674,1295
9675,1328
9676,1283
9677,1333
9678,1342
9679,1387
9680,1403
9681,1456
9682,1457
9683,1488
9684,1423
9685,1392
9686,1361
9687,1373
9688,1327
9689,1306
9690,1278
9691,1296
9692,1311
9693,1313
9694,1312
9695,1342
9696,1328
9697,1312
9698,1325
9699,1333
9700,1297
9701,1308
9702,1324
9703,1296
9704,1313
9705,1298
9706,1308
9707,1309
9708,1368
9709,1319
9710,1309
9711,1325
9712,1356
9713,1380
9714,1412
9715,1454
9716,1442
9717,1410
9718,1383
9719,1370
9720,1350
9721,1360
9722,1297
9723,1306
9724,1283
9725,1269
9726,1296
9727,1307
9728,1317
9729,1279
9730,1315
9731,1303
9732,1333
9733,1296
9734,1312
9735,1291
9736,1296
9737,1303
9738,1289
9739,1297
9740,1318
9741,1321
9742,1340
9743,1309
9744,1314
9745,1305
9746,1305
9747,1347
9748,1387
9749,1441
9750,1456
9751,1441
9752,1412
9753,1360
9754,1340
9755,1310
9756,1311
9757,1289
9758,1270
9759,1289
9760,1295
9761,1301
9762,1283
9763,1311
9764,1306
9765,1319
9766,1294
9767,1296
9768,1322
9769,1392
9770,1307
9771,1285
9772,1293
9773,1293
9774,1296
9775,1259
9776,1297
9777,1311
9778,1296
9779,1334
9780,1333
9781,1490
9782,1356
9783,1407
9784,1450
9785,1472
9786,1437
9787,1399
9788,1371
9789,1368
9790,1335
9791,1296
9792,1305
9793,1265
9794,1259
9795,1278
9796,1285
9797,1285
9798,1376
9799,1296
9800,1289
9801,1301
9802,1287
9803,1281
9804,1295
9805,1291
9806,1274
9807,1269
9808,1280
9809,1310
9810,1275
9811,1280
9812,1286
9813,1285
9814,1280
9815,1296
9816,1348
9817,1381
9818,1394
9819,1415
9820,1371
9821,1329
9822,1272
9823,1318
9824,1301
9825,1297
9826,1278
9827,1230
9828,1253
9829,1251
9830,1268
9831,1283
9832,1264
9833,1265
9834,1257
9835,1251
9836,1250
9837,1239
9838,1258
9839,1247
9840,1235
9841,1239
9842,1249
9843,1245
9844,1248
9845,1251
9846,1273
9847,1271
9848,1328
9849,1370
9850,1368
9851,1353
9852,1315
9853,1347
9854,1327
9855,1333
9856,1307
9857,1299
9858,1237
9859,1230
9860,1204
9861,1232
9862,1232
9863,1233
9864,1243
9865,1246
9866,1231
9867,1221
9868,1264
9869,1248
9870,1264
9871,1239
9872,1217
9873,1216
9874,1216
9875,1221
9876,1231
9877,1219
9878,1227
9879,1243
9880,1264
9881,1328
9882,1365
9883,1366
9884,1358
9885,1346
9886,1323
9887,1328
9888,1274
9889,1264
9890,1264
9891,1241
9892,1232
9893,1216
9894,1210
9895,1200
9896,1201
9897,1222
9898,1216
9899,1206
9900,1226
9901,1214
9902,1211
9903,1211
9904,1223
9905,1216
9906,1230
9907,1201
9908,1213
9909,1216
9910,1221
9911,1222
9912,1230
9913,1241
9914,1295
9915,1340
9916,1374
9917,1379
9918,1342
9919,1330
9920,1325
9921,1303
9922,1264
9923,1259
9924,1291
9925,1253
9926,1235
9927,1217
9928,1215
9929,1214
9930,1232
9931,1236
9932,1222
9933,1230
9934,1216
9935,1228
9936,1234
9937,1223
9938,1237
9939,1217
9940,1230
9941,1264
9942,1215
9943,1238
9944,1221
9945,1231
9946,1259
9947,1287
9948,1342
9949,1360
9950,1382
9951,1339
9952,1327
9953,1344
9954,1302
9955,1318
9956,1264
9957,1245
9958,1263
9959,1217
9960,1232
9961,1219
9962,1220
9963,1243
9964,1226
9965,1266
9966,1247
9967,1243
9968,1236
9969,1235
9970,1232
9971,1248
9972,1233
9973,1234
9974,1221
9975,1232
9976,1224
9977,1282
9978,1317
9979,1335
9980,1350
9981,1341
9982,1340
9983,1367
9984,1343
9985,1311
9986,1270
9987,1247
9988,1278
9989,1241
9990,1228
9991,1223
9992,1232
9993,1249
9994,1239
9995,1242
9996,1265
9997,1289
9998,1245
9999,1242
10000,1255
10001,1235
10002,1238
10003,1266
10004,1230
10005,1232
10006,1232
10007,1278
10008,1338
10009,1357
10010,1344
10011,1338
10012,1377
10013,1350
10014,1329
10015,1314
10016,1290
10017,1232
10018,1249
10019,1241
10020,1191
10021,1238
10022,1242
10023,1246
10024,1254
10025,1249
10026,1281
10027,1239
10028,1252
10029,1233
10030,1225
10031,1244
10032,1239
10033,1252
10034,1247
10035,1261
10036,1217
10037,1164
10038,1273
10039,1303
10040,1293
10041,1394
10042,1351
10043,1334
10044,1322
10045,1298
10046,1291
10047,1285
10048,1277
10049,1255
10050,1247
10051,1248
10052,1253
10053,1263
10054,1253
10055,1261
10056,1241
10057,1271
10058,1210
10059,1244
10060,1407
10061,1226
10062,1204
10063,1223
10064,1213
10065,1119
10066,1207
10067,1225
10068,1239
10069,1232
10070,1282
10071,1337
10072,1354
10073,1345
10074,1332
10075,1302
10076,1283
10077,1236
10078,1216
10079,1205
10080,1206
10081,1211
10082,1211
10083,1215
10084,1219
10085,1232
10086,1232
10087,1205
10088,1225
10089,1232
10090,1239
10091,1157
10092,1219
10093,1226
10094,1242
10095,1246
10096,1233
10097,1234
10098,1238
10099,1214
10100,1253
10101,1292
10102,1316
10103,1299
10104,1321
10105,1315
10106,1273
10107,1249
10108,1230
10109,1210
10110,1227
10111,1218
10112,1227
10113,1186
10114,1203
10115,1204
10116,1198
10117,1200
10118,1234
10119,1235
10120,1239
10121,1228
10122,1213
10123,1221
10124,1225
10125,1223
10126,1215
10127,1211
10128,1189
10129,1233
10130,1283
10131,1278
10132,1301
10133,1264
10134,1312
10135,1341
10136,1296
10137,1283
10138,1287
10139,1229
10140,1234
10141,1232
10142,1213
10143,1257
10144,1236
10145,1225
10146,1232
10147,1245
10148,1238
10149,1233
10150,1222
10151,1226
10152,1200
10153,1178
10154,1196
10155,1188
10156,1203
10157,1211
10158,1184
10159,1294
10160,1290
10161,1377
10162,1295
10163,1294
10164,1378
10165,1293
10166,1296
10167,1263
10168,1262
10169,1197
10170,1222
10171,1184
10172,1196
10173,1155
10174,1233
10175,1198
10176,1200
10177,1271
10178,1232
10179,1264
10180,1237
10181,1228
10182,1280
10183,1202
10184,1219
10185,1201
10186,1199
10187,1166
10188,1215
10189,1197
10190,1273
10191,1262
10192,1333
10193,1375
10194,1327
10195,1309
10196,1295
10197,1315
10198,1296
10199,1296
10200,1218
10201,1217
10202,1207
10203,1232
10204,1200
10205,1207
10206,1227
10207,1231
10208,1219
10209,1251
10210,1228
10211,1238
10212,1221
10213,1225
10214,1215
10215,1211
10216,1232
10217,1239
10218,1250
10219,1237
10220,1255
10221,1237
10222,1243
10223,1248
10224,1314
10225,1347
10226,1350
10227,1362
10228,1341
10229,1324
10230,1310
10231,1287
10232,1250
10233,1269
10234,1257
10235,1222
10236,1229
10237,1222
10238,1232
10239,1245
10240,1269
10241,1239
10242,1267
10243,1277
10244,1248
10245,1261
10246,1241
10247,1238
10248,1154
10249,1235
10250,1235
10251,1234
10252,1218
10253,1206
10254,1249
10255,1232
10256,1262
10257,1281
10258,1258
10259,1360
10260,1358
10261,1360
10262,1360
10263,1338
10264,1310
10265,1279
10266,1264
10267,1237
10268,1230
10269,1234
10270,1230
10271,1267
10272,1259
10273,1265
10274,1296
10275,1296
10276,1274
10277,1263
10278,1268
10279,1249
10280,1248
10281,1254
10282,1247
10283,1245
10284,1259
10285,1247
10286,1262
10287,1298
10288,1327
10289,1385
10290,1381
10291,1370
10292,1344
10293,1319
10294,1315
10295,1275
10296,1254
10297,1246
10298,1217
10299,1234
10300,1232
10301,1232
10302,1246
10303,1261
10304,1258
10305,1247
10306,1257
10307,1257
10308,1249
10309,1242
10310,1232
10311,1264
10312,1236
10313,1236
10314,1242
10315,1247
10316,1259
10317,1305
10318,1328
10319,1370
10320,1359
10321,1340
10322,1355
10323,1339
10324,1340
10325,1321
10326,1296
10327,1275
10328,1234
10329,1247
10330,1223
10331,1219
10332,1243
10333,1232
10334,1221
10335,1242
10336,1276
10337,1253
10338,1237
10339,1238
10340,1232
10341,1258
10342,1237
10343,1248
10344,1231
10345,1244
10346,1260
10347,1264
10348,1317
10349,1351
10350,1382
10351,1359
10352,1355
10353,1369
10354,1346
10355,1330
10356,1296
10357,1292
10358,1273
10359,1253
10360,1232
10361,1205
10362,1228
10363,1213
10364,1222
10365,1237
10366,1248
10367,1234
10368,1230
10369,1238
10370,1259
10371,1237
10372,1223
10373,1237
10374,1232
10375,1264
10376,1223
10377,1255
10378,1302
10379,1339
10380,1381
10381,1437
10382,1383
10383,1376
10384,1351
10385,1331
10386,1299
10387,1280
10388,1264
10389,1253
10390,1241
10391,1253
10392,1249
10393,1255
10394,1270
10395,1270
10396,1296
10397,1248
10398,1290
10399,1286
10400,1262
10401,1264
10402,1237
10403,1078
10404,1247
10405,1264
10406,1255
10407,1264
10408,1275
10409,1296
10410,1272
10411,1359
10412,1422
10413,1410
10414,1396
10415,1374
10416,1373
10417,1339
10418,1303
10419,1285
10420,1279
10421,1264
10422,1271
10423,1271
10424,1257
10425,1308
10426,1313
10427,1301
10428,1296
10429,1326
10430,1321
10431,1334
10432,1333
10433,1362
10434,1329
10435,1343
10436,1350
10437,1355
10438,1359
10439,1357
10440,1403
10441,1419
10442,1460
10443,1486
10444,1471
10445,1470
10446,1463
10447,1407
10448,1408
10449,1371
10450,1345
10451,1356
10452,1359
10453,1362
10454,1360
10455,1387
10456,1390
10457,1360
10458,1415
10459,1408
10460,1403
10461,1408
10462,1399
10463,1409
10464,1397
10465,1370
10466,1362
10467,1363
10468,1362
10469,1379
10470,1348
10471,1363
10472,1396
10473,1456
10474,1489
10475,1484
10476,1429
10477,1438
10478,1408
10479,1386
10480,1312
10481,1333
10482,1329
10483,1322
10484,1350
10485,1330
10486,1393
10487,1267
10488,1391
10489,1338
10490,1371
10491,1350
10492,1341
10493,1392
10494,1426
10495,1441
10496,1318
10497,1447
10498,1462
10499,1463
10500,1473
10501,1493
10502,1473
10503,1487
10504,1524
10505,1650
10506,1621
10507,1626
10508,1599
10509,1584
10510,1535
10511,1494
10512,1515
10513,1475
10514,1430
10515,1447
10516,1466
10517,1465
10518,1461
10519,1488
10520,1535
10521,1469
10522,1485
10523,1487
10524,1496
10525,1460
10526,1489
10527,1490
10528,1488
10529,1491
10530,1456
10531,1498
10532,1515
10533,1501
10534,1518
10535,1476
10536,1523
10537,1519
10538,1611
10539,1689
10540,1658
10541,1671
10542,1460
10543,1593
10544,1531
10545,1520
10546,1513
10547,1503
10548,1462
10549,1473
10550,1447
10551,1471
10552,1445
10553,1535
10554,1491
10555,1505
10556,1517
10557,1494
10558,1413
10559,1555
10560,1474
10561,1498
10562,1485
10563,1489
10564,1488
10565,1532
10566,1521
10567,1530
10568,1535
10569,1519
10570,1526
10571,1570
10572,1655
10573,1623
10574,1659
10575,1655
10576,1621
10577,1535
10578,1529
10579,1584
10580,1488
10581,1453
10582,1405
10583,1454
10584,1443
10585,1465
10586,1472
10587,1481
10588,1488
10589,1483
10590,1479
10591,1474
10592,1449
10593,1469
10594,1458
10595,1471
10596,1456
10597,1454
10598,1454
10599,1458
10600,1449
10601,1462
10602,1443
10603,1505
10604,1527
10605,1578
10606,1597
10607,1590
10608,1577
10609,1535
10610,1499
10611,1468
10612,1437
10613,1401
10614,1407
10615,1398
10616,1411
10617,1402
10618,1413
10619,1424
10620,1442
10621,1433
10622,1432
10623,1431
10624,1417
10625,1418
10626,1425
10627,1411
10628,1425
10629,1426
10630,1419
10631,1413
10632,1437
10633,1436
10634,1424
10635,1405
10636,1459
10637,1474
10638,1521
10639,1578
10640,1574
10641,1571
10642,1526
10643,1488
10644,1461
10645,1424
10646,1407
10647,1375
10648,1366
10649,1367
10650,1388
10651,1373
10652,1393
10653,1394
10654,1407
10655,1412
10656,1418
10657,1405
10658,1386
10659,1389
10660,1409
10661,1392
10662,1410
10663,1377
10664,1407
10665,1392
10666,1392
10667,1390
10668,1389
10669,1410
10670,1443
10671,1492
10672,1531
10673,1555
10674,1535
10675,1509
10676,1478
10677,1441
10678,1415
10679,1360
10680,1357
10681,1313
10682,1325
10683,1327
10684,1331
10685,1360
10686,1366
10687,1370
10688,1367
10689,1399
10690,1366
10691,1374
10692,1378
10693,1393
10694,1369
10695,1361
10696,1363
10697,1345
10698,1357
10699,1361
10700,1359
10701,1392
10702,1398
10703,1462
10704,1490
10705,1519
10706,1503
10707,1470
10708,1466
10709,1421
10710,1372
10711,1360
10712,1314
10713,1310
10714,1309
10715,1307
10716,1331
10717,1342
10718,1364
10719,1360
10720,1365
10721,1374
10722,1375
10723,1351
10724,1346
10725,1350
10726,1345
10727,1343
10728,1344
10729,1344
10730,1356
10731,1357
10732,1350
10733,1378
10734,1382
10735,1431
10736,1487
10737,1500
10738,1507
10739,1486
10740,1443
10741,1396
10742,1375
10743,1341
10744,1312
10745,1306
10746,1298
10747,1298
10748,1301
10749,1331
10750,1333
10751,1330
10752,1350
10753,1339
10754,1358
10755,1341
10756,1319
10757,1328
10758,1328
10759,1323
10760,1315
10761,1330
10762,1344
10763,1338
10764,1330
10765,1348
10766,1331
10767,1362
10768,1378
10769,1440
10770,1477
10771,1503
10772,1488
10773,1466
10774,1435
10775,1422
10776,1407
10777,1358
10778,1331
10779,1280
10780,1312
10781,1282
10782,1298
10783,1274
10784,1259
10785,1285
10786,1296
10787,1334
10788,1328
10789,1264
10790,1280
10791,1323
10792,1320
10793,1303
10794,1269
10795,1314
10796,1323
10797,1315
10798,1314
10799,1326
10800,1299
10801,1340
10802,1343
10803,1331
10804,1392
10805,1424
10806,1449
10807,1419
10808,1417
10809,1349
10810,1307
10811,1413
10812,1262
10813,1234
10814,1231
10815,1232
10816,1229
10817,1267
10818,1263
10819,1299
10820,1269
10821,1275
10822,1264
10823,1254
10824,1258
10825,1249
10826,1267
10827,1221
10828,1263
10829,1154
10830,1191
10831,1251
10832,1235
10833,1298
10834,1328
10835,1362
10836,1385
10837,1371
10838,1339
10839,1300
10840,1268
10841,1232
10842,1206
10843,1169
10844,1090
10845,1188
10846,1186
10847,1195
10848,1218
10849,1200
10850,1213
10851,1203
10852,1216
10853,1189
10854,1183
10855,1200
10856,1181
10857,1215
10858,1196
10859,1149
10860,1155
10861,1245
10862,1197
10863,1199
10864,1217
10865,1233
10866,1255
10867,1279
10868,1456
10869,1427
10870,1617
10871,1359
10872,1335
10873,1283
10874,1245
10875,1187
10876,1167
10877,1200
10878,1120
10879,1143
10880,1147
10881,1159
10882,1199
10883,1211
10884,1172
10885,1192
10886,1198
10887,1197
10888,1192
10889,1194
10890,1206
10891,1170
10892,1185
10893,1187
10894,1187
10895,1152
10896,1177
10897,1232
10898,1195
10899,1216
10900,1310
10901,1257
10902,1357
10903,1277
10904,1309
10905,1310
10906,1246
10907,1229
10908,1232
10909,1199
10910,1143
10911,1104
10912,1173
10913,1168
10914,1120
10915,1138
10916,1158
10917,1238
10918,1155
10919,1195
10920,1198
10921,1179
10922,1161
10923,1167
10924,1142
10925,1181
10926,1165
10927,1158
10928,1181
10929,1136
10930,1157
10931,1190
10932,1199
10933,1297
10934,1264
10935,1358
10936,1328
10937,1232
10938,1237
10939,1208
10940,1260
10941,1122
10942,1153
10943,1154
10944,1139
10945,1147
10946,1147
10947,1168
10948,1190
10949,1296
10950,1184
10951,1168
10952,1145
10953,1159
10954,1183
10955,1168
10956,1168
10957,1168
10958,1158
10959,1169
10960,1127
10961,1140
10962,1193
10963,1227
10964,1198
10965,1246
10966,1266
10967,1346
10968,1370
10969,1365
10970,1351
10971,1293
10972,1264
10973,1216
10974,1197
10975,1170
10976,1155
10977,1165
10978,1155
10979,1168
10980,1178
10981,1211
10982,1204
10983,1217
10984,1216
10985,1201
10986,1207
10987,1187
10988,1162
10989,1186
10990,1193
10991,1199
10992,1218
10993,1227
10994,1219
10995,1237
10996,1228
10997,1245
10998,1235
10999,1267
11000,1328
11001,1377
11002,1386
11003,1373
11004,1370
11005,1313
11006,1270
11007,1242
11008,1232
11009,1200
11010,1174
11011,1181
11012,1185
11013,1192
11014,1211
11015,1232
11016,1232
11017,1234
11018,1249
11019,1256
11020,1232
11021,1226
11022,1223
11023,1222
11024,1219
11025,1249
11026,1232
11027,1241
11028,1243
11029,1247
11030,1264
11031,1273
11032,1287
11033,1298
11034,1337
11035,1347
11036,1414
11037,1394
11038,1356
11039,1309
11040,1264
11041,1243
11042,1235
11043,1222
11044,1227
11045,1232
11046,1227
11047,1241
11048,1276
11049,1282
11050,1288
11051,1280
11052,1274
11053,1269
11054,1266
11055,1296
11056,1282
11057,1291
11058,1296
11059,1287
11060,1296
11061,1294
11062,1307
11063,1292
11064,1297
11065,1328
11066,1296
11067,1340
11068,1350
11069,1377
11070,1414
11071,1409
11072,1367
11073,1338
11074,1323
11075,1287
11076,1261
11077,1271
11078,1254
11079,1239
11080,1285
11081,1259
11082,1259
11083,1263
11084,1250
11085,1270
11086,1262
11087,1298
11088,1298
11089,1319
11090,1303
11091,1270
11092,1275
11093,1281
11094,1264
11095,1307
11096,1267
11097,1274
11098,1297
11099,1313
11100,1291
11101,1339
11102,1381
11103,1395
11104,1402
11105,1403
11106,1424
11107,1385
11108,1344
11109,1312
11110,1294
11111,1294
11112,1276
11113,1259
11114,1249
11115,1249
11116,1245
11117,1262
11118,1274
11119,1273
11120,1265
11121,1282
11122,1296
11123,1305
11124,1290
11125,1278
11126,1280
11127,1275
11128,1267
11129,1290
11130,1271
11131,1281
11132,1291
11133,1327
11134,1369
11135,1405
11136,1414
11137,1397
11138,1392
11139,1373
11140,1388
11141,1347
11142,1330
11143,1298
11144,1277
11145,1303
11146,1241
11147,1254
11148,1265
11149,1270
11150,1278
11151,1282
11152,1296
11153,1279
11154,1284
11155,1279
11156,1276
11157,1269
11158,1279
11159,1279
11160,1279
11161,1283
11162,1278
11163,1298
11164,1321
11165,1291
11166,1319
11167,1369
11168,1406
11169,1423
11170,1441
11171,1438
11172,1414
11173,1453
11174,1465
11175,1367
11176,1393
11177,1333
11178,1325
11179,1313
11180,1314
11181,1296
11182,1330
11183,1358
11184,1357
11185,1338
11186,1350
11187,1374
11188,1366
11189,1354
11190,1355
11191,1358
11192,1351
11193,1373
11194,1328
11195,1410
11196,1331
11197,1377
11198,1402
11199,1403
11200,1475
11201,1434
11202,1490
11203,1555
11204,1583
11205,1529
11206,1520
11207,1482
11208,1439
11209,1465
11210,1408
11211,1369
11212,1392
11213,1419
11214,1407
11215,1399
11216,1424
11217,1382
11218,1425
11219,1445
11220,1439
11221,1465
11222,1456
11223,1454
11224,1449
11225,1457
11226,1456
11227,1461
11228,1430
11229,1457
11230,1462
11231,1465
11232,1472
11233,1521
11234,1601
11235,1626
11236,1646
11237,1649
11238,1597
11239,1603
11240,1567
11241,1520
11242,1475
11243,1469
11244,1471
11245,1453
11246,1457
11247,1485
11248,1521
11249,1499
11250,1568
11251,1520
11252,1504
11253,1508
11254,1491
11255,1479
11256,1490
11257,1489
11258,1514
11259,1450
11260,1505
11261,1513
11262,1499
11263,1503
11264,1452
11265,1557
11266,1535
11267,1606
11268,1637
11269,1672
11270,1691
11271,1674
11272,1627
11273,1674
11274,1583
11275,1535
11276,1525
11277,1502
11278,1492
11279,1492
11280,1531
11281,1455
11282,1535
11283,1563
11284,1515
11285,1526
11286,1518
11287,1476
11288,1518
11289,1525
11290,1516
11291,1472
11292,1501
11293,1503
11294,1514
11295,1523
11296,1535
11297,1520
11298,1533
11299,1567
11300,1577
11301,1590
11302,1655
11303,1684
11304,1648
11305,1692
11306,1642
11307,1616
11308,1586
11309,1574
11310,1535
11311,1515
11312,1507
11313,1507
11314,1575
11315,1534
11316,1488
11317,1521
11318,1521
11319,1533
11320,1566
11321,1523
11322,1531
11323,1507
11324,1486
11325,1505
11326,1515
11327,1515
11328,1527
11329,1535
11330,1577
11331,1533
11332,1562
11333,1563
11334,1521
11335,1527
11336,1472
11337,1583
11338,1600
11339,1647
11340,1665
11341,1665
11342,1648
11343,1616
11344,1594
11345,1633
11346,1521
11347,1483
11348,1474
11349,1471
11350,1443
11351,1483
11352,1429
11353,1503
11354,1520
11355,1559
11356,1511
11357,1519
11358,1467
11359,1558
11360,1506
11361,1450
11362,1502
11363,1584
11364,1488
11365,1498
11366,1473
11367,1504
11368,1483
11369,1525
11370,1526
11371,1531
11372,1584
11373,1557
11374,1583
11375,1619
11376,1531
11377,1629
11378,1600
11379,1577
11380,1526
11381,1498
11382,1473
11383,1461
11384,1464
11385,1446
11386,1459
11387,1446
11388,1469
11389,1467
11390,1490
11391,1499
11392,1476
11393,1477
11394,1486
11395,1465
11396,1462
11397,1459
11398,1456
11399,1458
11400,1451
11401,1461
11402,1458
11403,1467
11404,1472
11405,1473
11406,1482
11407,1488
11408,1489
11409,1487
11410,1535
11411,1584
11412,1599
11413,1600
11414,1584
11415,1563
11416,1495
11417,1502
11418,1476
11419,1444
11420,1424
11421,1411
11422,1424
11423,1410
11424,1423
11425,1424
11426,1457
11427,1443
11428,1450
11429,1427
11430,1456
11431,1434
11432,1429
11433,1435
11434,1424
11435,1430
11436,1434
11437,1449
11438,1442
11439,1438
11440,1455
11441,1451
11442,1455
11443,1489
11444,1461
11445,1463
11446,1479
11447,1527
11448,1566
11449,1607
11450,1588
11451,1580
11452,1519
11453,1501
11454,1465
11455,1439
11456,1417
11457,1408
11458,1391
11459,1392
11460,1414
11461,1408
11462,1429
11463,1443
11464,1450
11465,1447
11466,1444
11467,1429
11468,1422
11469,1456
11470,1410
11471,1415
11472,1427
11473,1411
11474,1427
11475,1415
11476,1417
11477,1424
11478,1413
11479,1415
11480,1441
11481,1479
11482,1499
11483,1533
11484,1535
11485,1524
11486,1505
11487,1472
11488,1455
11489,1408
11490,1387
11491,1373
11492,1379
11493,1353
11494,1362
11495,1367
11496,1380
11497,1410
11498,1393
11499,1397
11500,1391
11501,1389
11502,1394
11503,1375
11504,1381
11505,1393
11506,1390
11507,1392
11508,1380
11509,1392
11510,1383
11511,1403
11512,1382
11513,1395
11514,1413
11515,1439
11516,1478
11517,1519
11518,1526
11519,1513
11520,1508
11521,1446
11522,1411
11523,1389
11524,1367
11525,1342
11526,1334
11527,1335
11528,1332
11529,1331
11530,1347
11531,1354
11532,1367
11533,1345
11534,1363
11535,1347
11536,1345
11537,1360
11538,1351
11539,1353
11540,1350
11541,1345
11542,1350
11543,1360
11544,1387
11545,1369
11546,1360
11547,1366
11548,1378
11549,1395
11550,1435
11551,1465
11552,1479
11553,1498
11554,1487
11555,1447
11556,1408
11557,1375
11558,1361
11559,1345
11560,1335
11561,1298
11562,1303
11563,1308
11564,1328
11565,1326
11566,1337
11567,1347
11568,1355
11569,1338
11570,1292
11571,1289
11572,1297
11573,1299
11574,1306
11575,1296
11576,1249
11577,1290
11578,1233
11579,1289
11580,1303
11581,1290
11582,1325
11583,1401
11584,1411
11585,1360
11586,1397
11587,1431
11588,1387
11589,1381
11590,1293
11591,1341
11592,1296
11593,1328
11594,1296
11595,1264
11596,1272
11597,1264
11598,1339
11599,1274
11600,1310
11601,1312
11602,1324
11603,1264
11604,1313
11605,1287
11606,1280
11607,1294
11608,1265
11609,1285
11610,1280
11611,1281
11612,1249
11613,1326
11614,1307
11615,1215
11616,1246
11617,1343
11618,1387
11619,1296
11620,1344
11621,1315
11622,1267
11623,1260
11624,1161
11625,1230
11626,1162
11627,1202
11628,1168
11629,1223
11630,1224
11631,1225
11632,1167
11633,1238
11634,1291
11635,1232
11636,1212
11637,1208
11638,1222
11639,1140
11640,1176
11641,1191
11642,1223
11643,1192
11644,1231
11645,1219
11646,1230
11647,1235
11648,1232
11649,1263
11650,1246
11651,1338
11652,1331
11653,1329
11654,1361
11655,1250
11656,1216
11657,1216
11658,1187
11659,1169
11660,1163
11661,1133
11662,1153
11663,1157
11664,1156
11665,1149
11666,1168
11667,1089
11668,1194
11669,1168
11670,1154
11671,1165
11672,1168
11673,1158
11674,1136
11675,1147
11676,926
11677,1168
11678,1170
11679,1173
11680,1164
11681,1154
11682,1199
11683,1237
11684,1201
11685,1245
11686,1232
11687,1311
11688,1321
11689,1322
11690,1289
11691,1271
11692,1169
11693,1191
11694,1168
11695,1169
11696,1144
11697,1119
11698,1133
11699,1120
11700,1199
11701,1152
11702,1161
11703,1129
11704,1149
11705,1139
11706,1101
11707,1132
11708,1148
11709,1155
11710,1112
11711,1124
11712,1137
11713,1136
11714,1174
11715,1170
11716,1183
11717,1157
11718,1158
11719,1160
11720,1182
11721,1179
11722,1140
11723,1225
11724,1200
11725,1296
11726,1321
11727,1294
11728,1351
11729,1311
11730,1182
11731,1167
11732,1175
11733,1141
11734,1117
11735,1133
11736,1134
11737,1147
11738,1114
11739,1155
11740,1232
11741,1136
11742,1048
11743,1165
11744,1169
11745,1092
11746,1174
11747,1168
11748,1155
11749,1179
11750,1138
11751,1154
11752,1173
11753,1173
11754,1178
11755,1157
11756,1186
11757,1204
11758,1232
11759,1343
11760,1313
11761,1304
11762,1315
11763,1263
11764,1246
11765,1198
11766,1189
11767,1170
11768,1167
11769,1161
11770,1159
11771,1169
11772,1251
11773,1193
11774,1213
11775,1217
11776,1226
11777,1211
11778,1207
11779,1203
11780,1135
11781,1199
11782,1211
11783,1210
11784,1202
11785,1232
11786,1237
11787,1287
11788,1230
11789,1232
11790,1264
11791,1285
11792,1357
11793,1378
11794,1392
11795,1373
11796,1351
11797,1317
11798,1299
11799,1259
11800,1239
11801,1239
11802,1232
11803,1210
11804,1219
11805,1233
11806,1248
11807,1255
11808,1263
11809,1261
11810,1270
11811,1258
11812,1254
11813,1212
11814,1249
11815,1254
11816,1250
11817,1253
11818,1259
11819,1264
11820,1322
11821,1289
11822,1268
11823,1298
11824,1290
11825,1310
11826,1319
11827,1353
11828,1383
11829,1396
11830,1423
11831,1376
11832,1357
11833,1330
11834,1298
11835,1274
11836,1264
11837,1241
11838,1274
11839,1253
11840,1258
11841,1275
11842,1281
11843,1272
11844,1285
11845,1274
11846,1289
11847,1293
11848,1267
11849,1279
11850,1271
11851,1281
11852,1280
11853,1265
11854,1282
11855,1296
11856,1303
11857,1307
11858,1299
11859,1303
11860,1326
11861,1290
11862,1309
11863,1349
11864,1382
11865,1398
11866,1404
11867,1407
11868,1366
11869,1329
11870,1305
11871,1298
11872,1269
11873,1260
11874,1258
11875,1262
11876,1285
11877,1257
11878,1245
11879,1254
11880,1265
11881,1270
11882,1299
11883,1293
11884,1284
11885,1292
11886,1279
11887,1260
11888,1264
11889,1259
11890,1250
11891,1244
11892,1278
11893,1295
11894,1291
11895,1294
11896,1291
11897,1271
11898,1290
11899,1317
11900,1346
11901,1391
11902,1415
11903,1402
11904,1417
11905,1413
11906,1391
11907,1361
11908,1315
11909,1301
11910,1296
11911,1287
11912,1253
11913,1300
11914,1248
11915,1264
11916,1262
